freq	HL	HV	HK	HI	LV	LK	LI	VI	IK	VK	E1E2	E2E3	E1E3	E1H	E1L	E2H	E2L	E3H	E3L	CE1CE2
1	-0.89026143	-0.016973512	-0.81127446	-0.48431498	-0.2450244	0.20088482	0.54160682	-0.41175558	1.1980216	0.57532945	-0.37500001	-0.37499999	-0.37500014	0.1660721	-0.30637753	0.19153441	0.061159674	-0.35760812	0.2452195	-0.89026143
2	-0.88904143	-0.020893253	-0.80416198	-0.46142455	-0.23869195	0.20162484	0.51278109	-0.40741312	1.1914837	0.55506857	-0.37500001	-0.37499999	-0.37500014	0.15992778	-0.30140657	0.19127602	0.056633571	-0.35120998	0.24477933	-0.88904143
3	-0.88701064	-0.027308718	-0.79240524	-0.42419264	-0.22828347	0.20277534	0.46607969	-0.40023369	1.1806428	0.52187543	-0.375	-0.37499998	-0.37500013	0.14984495	-0.29322201	0.19082677	0.049208018	-0.34068515	0.24402806	-0.88701064
4	-0.88417286	-0.036046882	-0.77614873	-0.37395993	-0.214014	0.20421574	0.40345097	-0.39030346	1.1655815	0.47659613	-0.37499998	-0.37499996	-0.37500011	0.13605615	-0.28197223	0.19015944	0.039057064	-0.32623852	0.24293988	-0.88417286
5	-0.88053341	-0.04687168	-0.75559151	-0.31252993	-0.19617787	0.20578449	0.32749791	-0.37774137	1.1464144	0.42038298	-0.37499997	-0.37499995	-0.3750001	0.11887914	-0.26786059	0.18923739	0.026418689	-0.30815048	0.24148001	-0.88053341
6	-0.8760991	-0.059489993	-0.73098416	-0.24209909	-0.17514224	0.20728604	0.24136068	-0.36269759	1.123287	0.35466324	-0.37499994	-0.37499992	-0.37500008	0.09870918	-0.25114122	0.18801584	0.011589279	-0.28677075	0.23960595	-0.8760991
7	-0.87087823	-0.073559076	-0.70262481	-0.16517195	-0.15133893	0.20849923	0.14857524	-0.34535138	1.0963742	0.28110066	-0.37499992	-0.3749999	-0.37500005	0.076009641	-0.23211373	0.18644358	-0.0050832561	-0.26251057	0.23726913	-0.87087823
8	-0.86488053	-0.088695239	-0.67085448	-0.084464738	-0.12525494	0.20918699	0.052915015	-0.32590868	1.0658786	0.20155055	-0.37499989	-0.37499987	-0.37500002	0.05130088	-0.21111698	0.18446494	-0.023207548	-0.23583366	0.23441675	-0.86488053
9	-0.85811722	-0.10448357	-0.63605186	-0.0028012452	-0.097421702	0.20910668	-0.041777126	-0.3045993	1.0320286	0.11800994	-0.37499986	-0.37499984	-0.37499999	0.025147824	-0.18852211	0.18202191	-0.042357841	-0.20724593	0.23099383	-0.85811722
10	-0.85060088	-0.12048844	-0.5986274	0.076994689	-0.068403439	0.20802104	-0.13175863	-0.28167379	0.9950762	0.032564035	-0.37499982	-0.3749998	-0.37499995	-0.0018534872	-0.16472487	0.17905648	-0.062083841	-0.17728442	0.22694546	-0.85060088
11	-0.84234549	-0.13626453	-0.55901708	0.15220591	-0.038784788	0.20570889	-0.21355076	-0.25740004	0.95529459	-0.052669477	-0.37499978	-0.37499976	-0.37499991	-0.029090071	-0.14013753	0.17551303	-0.081921128	-0.14650556	0.22221908	-0.84234549
12	-0.8333664	-0.1513681	-0.51767574	0.22032355	-0.0091580692	0.20197556	-0.28408841	-0.23205967	0.91297556	-0.13559666	-0.37499973	-0.37499971	-0.37499986	-0.055946513	-0.1151805	0.17134072	-0.10140187	-0.1154731	0.21676683	-0.8333664
13	-0.82368024	-0.16536822	-0.47507023	0.27913959	0.019889568	0.19666239	-0.34084915	-0.2059442	0.86842669	-0.21420262	-0.37499968	-0.37499966	-0.37499981	-0.08181949	-0.090273812	0.16649581	-0.12006559	-0.08474596	0.21054783	-0.82368024
14	-0.81330493	-0.17785766	-0.4316725	0.32682654	0.047788817	0.18965497	-0.38195592	-0.17935119	0.82196847	-0.28660433	-0.37499963	-0.37499961	-0.37499976	-0.10613192	-0.065828694	0.16094388	-0.13746975	-0.054866291	0.20353031	-0.81330493
15	-0.80225961	-0.18846318	-0.38795262	0.3620015	0.074000406	0.18088987	-0.40624869	-0.15258024	0.77393135	-0.35109942	-0.37499957	-0.37499955	-0.3749997	-0.12834644	-0.042239448	0.15466182	-0.15319989	-0.026348076	0.19569365	-0.80225961
16	-0.7905646	-0.19685499	-0.34437197	0.3837718	0.098026552	0.17035949	-0.41332214	-0.12592899	0.72465258	-0.40620977	-0.37499951	-0.37499949	-0.37499964	-0.1479778	-0.019875723	0.14763957	-0.16687908	0.00033357015	0.18703012	-0.7905646
17	-0.77824139	-0.20275504	-0.3013767	0.39176093	0.1194214	0.15811484	-0.4035281	-0.099689261	0.67447317	-0.45071857	-0.37499945	-0.37499943	-0.37499958	-0.16460401	0.00092458709	0.13988151	-0.17817647	0.024752075	0.17754633	-0.77824139
18	-0.76531252	-0.20594409	-0.25939151	0.38611375	0.13780025	0.14426626	-0.377943	-0.074143183	0.62373475	-0.4837	-0.37499938	-0.37499936	-0.37499951	-0.17787584	0.019861695	0.13140749	-0.18681477	0.046537875	0.16726434	-0.76531252
19	-0.75180157	-0.20626722	-0.21881392	0.36748099	0.1528473	0.12898173	-0.3383025	-0.049559573	0.57277649	-0.5045406	-0.37499931	-0.37499929	-0.37499944	-0.18752449	0.036679378	0.12225353	-0.19257642	0.065385481	0.15622244	-0.75180157
20	-0.73773311	-0.2036378	-0.18000905	0.33698412	0.16432184	0.11248318	-0.28690684	-0.026190491	0.52193206	-0.51295199	-0.37499923	-0.37499921	-0.37499936	-0.19336733	0.051169442	0.11247191	-0.19530844	0.081058994	0.14447547	-0.73773311
21	-0.72313263	-0.19803966	-0.14330504	0.29616205	0.17206269	0.095040584	-0.22650187	-0.0042680667	0.4715267	-0.50897452	-0.37499915	-0.37499913	-0.37499928	-0.19531146	0.063175094	0.10213103	-0.19492562	0.093395955	0.13209472	-0.72313263
22	-0.70802648	-0.18952757	-0.10898922	0.24690226	0.17599078	0.076964304	-0.16014178	0.015998369	0.42187443	-0.49297179	-0.37499907	-0.37499905	-0.3749992	-0.19335511	0.072593172	0.091314641	-0.19141231	0.10230946	0.1191674	-0.70802648
23	-0.6924418	-0.17822594	-0.077304957	0.19135922	0.17610994	0.058595733	-0.091040517	0.034424811	0.37327536	-0.46561649	-0.37499898	-0.37499896	-0.37499911	-0.18758679	0.07937518	0.080120735	-0.18482242	0.10778851	0.10579573	-0.6924418
24	-0.67640647	-0.16432573	-0.04844934	0.13186377	0.17250572	0.040296722	-0.022419015	0.050854723	0.32601319	-0.42786779	-0.37499889	-0.37499887	-0.37499902	-0.1781823	0.083527136	0.068659976	-0.17527794	0.1098966	0.09209552	-0.67640647
25	-0.65994906	-0.14807979	-0.02257167	0.070827086	0.16534247	0.022438092	0.042644251	0.065160777	0.28035298	-0.38094117	-0.37499879	-0.37499877	-0.37499892	-0.16539965	0.08510824	0.057053761	-0.16296582	0.10876864	0.078194442	-0.65994906
26	-0.64309873	-0.12979664	0.00022721079	0.010643511	0.15485861	0.0053876594	0.10135236	0.077246165	0.23653902	-0.3262715	-0.37499869	-0.37499867	-0.37499882	-0.14957201	0.08422841	0.045431931	-0.1481334	0.10460622	0.064229901	-0.64309873
27	-0.62588518	-0.1098329	0.019894784	-0.046404041	0.14136034	-0.010501787	0.15131217	0.087045463	0.19479304	-0.2654706	-0.37499859	-0.37499857	-0.37499872	-0.13109887	0.08104476	0.033930204	-0.13108246	0.097671482	0.050346615	-0.62588518
28	-0.60833859	-0.088584523	0.0364259	-0.098232061	0.12521381	-0.024904128	0.1906342	0.094525047	0.15531265	-0.20028043	-0.37499848	-0.37499846	-0.37499861	-0.11043582	0.075757104	0.022687377	-0.11216203	0.088279627	0.03669394	-0.60833859
29	-0.59048954	-0.066477153	0.049861066	-0.14303443	0.10683613	-0.03753076	0.21800575	0.099683051	0.11827004	-0.13252328	-0.37499837	-0.37499835	-0.3749985	-0.088082873	0.068602611	0.011842378	-0.091760212	0.076790351	0.023422998	-0.59048954
30	-0.57236895	-0.043955727	0.060284005	-0.17934734	0.086685201	-0.048140232	0.23273439	0.10254887	0.083810942	-0.064050585	-0.37499825	-0.37499823	-0.37499838	-0.064572005	0.059849735	0.0015312348	-0.07029506	0.063598396	0.010683676	-0.57236895
31	-0.55400798	-0.021473692	0.067818567	-0.20609871	0.065248871	-0.056546347	0.23476031	0.10318225	0.052053961	0.0033085127	-0.37499813	-0.37499811	-0.37499826	-0.040453944	0.049791573	-0.008115959	-0.048204932	0.049123459	-0.0013784203	-0.55400798
32	-0.53543801	0.00051795052	0.072625038	-0.22264042	0.043033472	-0.062624417	0.2246377	0.1016719	0.02309009	0.067797029	-0.37499801	-0.37499799	-0.37499814	-0.016284703	0.038738803	-0.016978002	-0.025938378	0.033799716	-0.012625012	-0.53543801
33	-0.51669053	0.02158147	0.074895955	-0.22876231	0.020552116	-0.066315448	0.20348683	0.098133771	-0.003017406	0.12777729	-0.37499788	-0.37499786	-0.37499801	0.0073878645	0.027012382	-0.024945394	-0.0039438954	0.018065208	-0.022928083	-0.51669053
34	-0.49779708	0.041302844	0.074851494	-0.22468773	-0.0016870132	-0.067628106	0.17291988	0.092708943	-0.026232846	0.18177396	-0.37499775	-0.37499773	-0.37499788	0.030037156	0.014936152	-0.031922919	0.01734023	0.0023513711	-0.032172671	-0.49779708
35	-0.4787892	0.059301539	0.07273454	-0.21105129	-0.023192087	-0.066638392	0.13494475	0.085561156	-0.046547705	0.2285118	-0.37499761	-0.37499759	-0.37499774	0.051170212	0.0028295504	-0.037831934	0.037495767	-0.012927063	-0.040259413	-0.4787892
36	-0.45969832	0.075239401	0.068805529	-0.18886006	-0.043498523	-0.063487028	0.091852285	0.076874076	-0.063979913	0.26694716	-0.37499747	-0.37499745	-0.3749976	0.070339132	-0.0089994404	-0.042612309	0.056133826	-0.027381537	-0.047106802	-0.45969832
37	-0.44055573	0.088828428	0.063337169	-0.15944019	-0.062179085	-0.058374664	0.046092917	0.066848303	-0.078572889	0.29629236	-0.37499733	-0.37499731	-0.37499746	0.087151226	-0.020260917	-0.046223949	0.072903381	-0.040658304	-0.052653088	-0.44055573
38	-0.42139249	0.099837248	0.056609133	-0.1243716	-0.078852979	-0.051555066	0.00014900956	0.055698172	-0.090394333	0.31603244	-0.37499718	-0.37499716	-0.37499731	0.10127766	-0.030689133	-0.048647881	0.087498833	-0.052446019	-0.056857782	-0.42139249
39	-0.40223937	0.10809615	0.048902836	-0.085413711	-0.093193726	-0.043326533	-0.043590439	0.043648405	-0.099534796	0.32593384	-0.37499703	-0.37499701	-0.37499716	0.11246044	-0.040047882	-0.049886849	0.09966644	-0.062482131	-0.059702712	-0.40223937
40	-0.38312678	0.11350054	0.040496371	-0.044425559	-0.10493566	-0.034021856	-0.082946616	0.030930656	-0.10610603	0.3260449	-0.37499688	-0.37499686	-0.37499701	0.12051748	-0.048135089	-0.049965411	0.10920948	-0.070557928	-0.061192607	-0.38312678
41	-0.36408471	0.11601276	0.031659715	-0.0032838441	-0.11387893	-0.023997172	-0.11605355	0.017780006	-0.11023918	0.31668835	-0.37499672	-0.3749967	-0.37499685	0.12534578	-0.054786507	-0.048929539	0.11599204	-0.076522149	-0.061355196	-0.36408471
42	-0.34514266	0.11566223	0.022650268	0.036197553	-0.11989281	-0.013620116	-0.14144179	0.0044314691	-0.11208275	0.29844603	-0.37499656	-0.37499654	-0.37499669	0.12692255	-0.059878454	-0.046845705	0.11994132	-0.080283092	-0.060240807	-0.34514266
43	-0.32632959	0.11254397	0.013708817	0.072343189	-0.12291747	-0.0032576875	-0.15809945	-0.0088834628	-0.11180053	0.27213649	-0.37499639	-0.37499637	-0.37499652	0.12530435	-0.063329543	-0.043799497	0.12104848	-0.081809187	-0.057921475	-0.32632959
44	-0.30767386	0.10681541	0.0050559659	0.10368368	-0.12296396	0.006735735	-0.16550798	-0.021940154	-0.10956934	0.23878622	-0.37499622	-0.3749962	-0.37499635	0.12062427	-0.065101391	-0.039893782	0.11936796	-0.081128076	-0.05448957	-0.30767386
45	-0.28920314	0.098691833	-0.0031108954	0.12901259	-0.12011253	0.016029813	-0.16365173	-0.034524018	-0.10557672	0.19959542	-0.37499604	-0.37499602	-0.37499618	0.11308717	-0.065198295	-0.035246466	0.11501533	-0.078324216	-0.050055988	-0.28920314
46	-0.2709444	0.088440288	-0.010620052	0.14743046	-0.11450941	0.024328706	-0.15300131	-0.0464335	-0.10001855	0.15589941	-0.37499587	-0.37499585	-0.374996	0.10296333	-0.063665916	-0.029987894	0.10816374	-0.073535123	-0.044747923	-0.2709444
47	-0.25292384	0.076372407	-0.01732733	0.15837426	-0.10636205	0.031380198	-0.13447252	-0.057482827	-0.093096654	0.10912689	-0.37499568	-0.37499566	-0.37499581	0.090580401	-0.060589017	-0.024257971	0.099039068	-0.06694637	-0.03870629	-0.25292384
48	-0.23516681	0.062836132	-0.023117343	0.16163148	-0.095932994	0.0369832	-0.10936346	-0.067504474	-0.085016424	0.060756338	-0.3749955	-0.37499548	-0.37499563	0.076314213	-0.056088324	-0.018203052	0.087913902	-0.058785475	-0.032082838	-0.23516681
49	-0.2176978	0.048206658	-0.027904121	0.1573385	-0.083532565	0.040993362	-0.079273773	-0.076351314	-0.075984447	0.012271776	-0.37499531	-0.37499529	-0.37499544	0.060578382	-0.050316603	-0.011972692	0.075100485	-0.049314886	-0.025037031	-0.2176978
50	-0.20054039	0.032876824	-0.031631141	0.14596378	-0.069510534	0.043326636	-0.046010637	-0.08389843	-0.066206193	-0.034880664	-0.37499511	-0.37499509	-0.37499524	0.043813216	-0.043454071	-0.005716335	0.060942833	-0.038824228	-0.017732764	-0.20054039
51	-0.18371717	0.017247176	-0.034270753	0.1282769	-0.054246998	0.04396067	-0.011486752	-0.090044564	-0.05588379	-0.079334221	-0.37499491	-0.37499489	-0.37499505	0.026474108	-0.035703242	0.00041999309	0.045808216	-0.027622045	-0.010334984	-0.18371717
52	-0.16724973	0.0017159856	-0.035823067	0.10530526	-0.038142704	0.042934027	0.022384125	-0.094713173	-0.045213902	-0.11983979	-0.37499471	-0.37499469	-0.37499484	0.0090197468	-0.027283372	0.0062968836	0.030078203	-0.016027252	-0.0030062974	-0.16724973
53	-0.15115864	-0.013330539	-0.036314325	0.078280531	-0.021609036	0.040343276	0.053788605	-0.097853111	-0.034385733	-0.15529996	-0.37499451	-0.37499449	-0.37499464	-0.008099548	-0.018424618	0.011784578	0.0141395	-0.0043605171	0.0040963579	-0.15115864
54	-0.13546336	-0.027527601	-0.035794805	0.048577503	-0.0050579374	0.036338094	0.081106806	-0.099438893	-0.023579177	-0.18479783	-0.3749943	-0.37499428	-0.37499443	-0.024453076	-0.0093620739	0.016765753	-0.001625196	0.0070641958	0.010824902	-0.13546336
55	-0.12018224	-0.040540479	-0.034336337	0.017648298	0.011108003	0.031114583	0.10299254	-0.099470576	-0.012963137	-0.20761992	-0.37499408	-0.37499406	-0.37499421	-0.039640306	-0.00032982104	0.021137986	-0.016846118	0.017947714	0.017043095	-0.12018224
56	-0.10533252	-0.052072307	-0.032029475	-0.013045135	0.02650506	0.024907061	0.11843668	-0.097973251	-0.0026940187	-0.22327256	-0.37499387	-0.37499385	-0.374994	-0.053300467	0.0084448551	0.024815854	-0.031174903	0.02801317	0.022629233	-0.10533252
57	-0.090930235	-0.061870776	-0.028980413	-0.042097125	0.040777252	0.017978665	0.12681083	-0.094996144	0.0070855728	-0.23149132	-0.37499364	-0.37499362	-0.37499378	-0.065120949	0.016746952	0.027732606	-0.044292427	0.037012762	0.027478513	-0.090930235
58	-0.076990249	-0.069733603	-0.025307706	-0.06822011	0.05360439	0.010611103	0.12788944	-0.090611384	0.016247941	-0.23224352	-0.37499342	-0.3749934	-0.37499355	-0.074844307	0.024378811	0.029841377	-0.055915818	0.044733596	0.031505	-0.076990249
59	-0.063526212	-0.075512635	-0.021138882	-0.090299521	0.064709107	0.0030939542	0.12184985	-0.084912415	0.024681185	-0.22572364	-0.37499319	-0.37499317	-0.37499332	-0.082273729	0.031164633	0.031115907	-0.065804496	0.051002481	0.034643162	-0.063526212
60	-0.050550549	-0.079116521	-0.016607011	-0.10743943	0.073862724	-0.0042860907	0.10925081	-0.07801212	0.032289876	-0.21234208	-0.37499296	-0.37499294	-0.37499309	-0.087276825	0.036954355	0.03155077	-0.073765091	0.055689569	0.036848932	-0.050550549
61	-0.038074442	-0.08051188	-0.011847318	-0.11899715	0.080889814	-0.011255655	0.090991105	-0.070040667	0.038995506	-0.19270763	-0.37499272	-0.3749927	-0.37499285	-0.089787693	0.041626801	0.031161085	-0.079655157	0.058710774	0.038100283	-0.038074442
62	-0.026107825	-0.079722975	-0.0069938967	-0.12460547	0.085671388	-0.017564392	0.068251139	-0.061143124	0.044736724	-0.16760435	-0.37499248	-0.37499246	-0.37499261	-0.089807209	0.045092051	0.029981744	-0.083385597	0.060028923	0.038397307	-0.026107825
63	-0.014659376	-0.076829903	-0.002176595	-0.12418187	0.088146638	-0.022993654	0.0424209	-0.051476881	0.049469348	-0.1379636	-0.37499223	-0.37499221	-0.37499236	-0.087401586	0.04729297	0.028066169	-0.084921753	0.059653646	0.037761784	-0.014659376
64	-0.0037365092	-0.071965394	0.0024818568	-0.11792452	0.088313224	-0.027363798	0.01501862	-0.041208921	0.053166171	-0.10483227	-0.37499198	-0.37499196	-0.37499211	-0.082699255	0.048205898	0.025484628	-0.084283165	0.057640018	0.036236279	-0.0037365092
65	0.0066546184	-0.065310301	0.0068684377	-0.10629567	0.086226116	-0.030539907	-0.01239534	-0.030512989	0.055816561	-0.069338117	-0.37499173	-0.37499171	-0.37499186	-0.075886175	0.047840477	0.022322175	-0.081542027	0.05408603	0.033882773	0.0066546184
66	0.01650911	-0.057087926	0.010882091	-0.089993364	0.081995051	-0.032435719	-0.038304596	-0.019566695	0.057425871	-0.032653356	-0.37499147	-0.37499145	-0.3749916	-0.067199734	0.046238655	0.018676246	-0.076820371	0.049128964	0.030780865	0.01650911
67	0.025823319	-0.047557345	0.01443561	-0.069913143	0.075780679	-0.033015674	-0.06131822	-0.0085486128	0.058014664	0.0040422843	-0.37499121	-0.37499119	-0.37499134	-0.056921409	0.0434729	0.01465399	-0.070286108	0.042940806	0.027025606	0.025823319
68	0.034594844	-0.037005928	0.017457123	-0.047101613	0.067789528	-0.03229502	-0.080243295	0.0023646002	0.057617779	0.039598016	-0.37499095	-0.37499093	-0.37499108	-0.045368404	0.039643682	0.010369404	-0.062147998	0.035722818	0.022725	0.034594844
69	0.042822513	-0.025741246	0.019891168	-0.022704263	0.058267925	-0.030338021	-0.094144859	0.013000996	0.056283239	0.072926773	-0.37499068	-0.37499066	-0.37499081	-0.032884516	0.034876301	0.0059403397	-0.052649715	0.027699454	0.017997247	0.042822513
70	0.050506368	-0.014082601	0.021699333	0.0020900084	0.047495039	-0.027254363	-0.10239028	0.023196015	0.054071039	0.10303733	-0.37499041	-0.37499039	-0.37499054	-0.019830453	0.029317161	0.0014854593	-0.042063163	0.019111769	0.012967788	0.050506368
71	0.05764765	-0.0023523995	0.02286048	0.026105013	0.035775241	-0.02319393	-0.10467607	0.032795001	0.051051809	0.1290628	-0.37499013	-0.37499011	-0.37499026	-0.0065739012	0.023129584	-0.0028787737	-0.030681205	0.010210533	0.0077662278	0.05764765
72	0.064248778	0.0091324013	0.023370556	0.048231473	0.023429969	-0.018340175	-0.10103603	0.041655523	0.047305396	0.15028474	-0.37498985	-0.37498983	-0.37498998	0.0065204134	0.016489278	-0.0070410026	-0.01881001	0.0012492104	0.002523204	0.064248778
73	0.070313321	0.020068551	0.023242001	0.067476853	0.01078933	-0.012902363	-0.091830799	0.049649462	0.042919368	0.16615211	-0.37498957	-0.37498955	-0.3749897	0.019100396	0.0095795905	-0.010897707	-0.0067611999	-0.0075229693	-0.0026327131	0.070313321
74	0.075845974	0.030174256	0.0225028	0.083008623	-0.0018163744	-0.0071070011	-0.077719769	0.056664832	0.037987468	0.1762948	-0.37498928	-0.37498926	-0.37498941	0.030835738	0.0025866601	-0.014355686	0.0051559943	-0.0158677	-0.0075780286	0.075845974
75	0.080852533	0.039196215	0.0211952	0.094189121	-0.014064962	-0.0011887879	-0.05961732	0.062607327	0.032608042	0.18053115	-0.37498899	-0.37498896	-0.37498912	0.041426319	-0.0043054059	-0.017334241	0.016642387	-0.023563846	-0.012197161	0.080852533
76	0.085339855	0.04691579	0.019374129	0.10060058	-0.025650331	0.004618555	-0.038636109	0.067401546	0.026882458	0.17886951	-0.37498869	-0.37498867	-0.37498882	0.050609648	-0.010919204	-0.019766999	0.027416102	-0.030413102	-0.016385047	0.085339855
77	0.089315832	0.053154128	0.017105384	0.1020594	-0.036289871	0.010091228	-0.016020823	0.070991906	0.020913537	0.17150392	-0.37498839	-0.37498837	-0.37498852	0.058167158	-0.017088447	-0.021603335	0.037219286	-0.036244922	-0.020049454	0.089315832
78	0.092789351	0.057776151	0.014463613	0.098619181	-0.045731148	0.015023733	0.0069237795	0.073343218	0.014804016	0.15880406	-0.37498809	-0.37498806	-0.37498822	0.063929203	-0.022661999	-0.02280937	0.045824097	-0.040920588	-0.023112948	0.092789351
79	0.095770256	0.0606933	0.011530165	0.090562739	-0.053757707	0.019236384	0.028906449	0.074440928	0.0086550721	0.14129985	-0.37498778	-0.37498776	-0.37498791	0.06777866	-0.027507454	-0.023368518	0.053037844	-0.044336338	-0.025514476	0.095770256
80	0.09826931	0.061864988	0.0083908512	0.07838354	-0.060193858	0.02258167	0.048720607	0.074291022	0.0025649037	0.1196615	-0.37498747	-0.37498745	-0.3749876	0.069653039	-0.03151416	-0.023281575	0.058707154	-0.046425486	-0.027210524	0.09826931
81	0.10029815	0.061298753	0.0051336757	0.06275779	-0.064908353	0.024949258	0.065309207	0.072919598	-0.0033725892	0.094675419	-0.37498715	-0.37498713	-0.37498728	0.06954509	-0.034595626	-0.022566355	0.062721083	-0.047159476	-0.028175839	0.10029815
