f	psd[1/Hz]
1.0	6.768449484007357e-43
1.4999499949994999	3.4306233148058447e-43
1.9998999899989998	1.6058631205842502e-43
2.4998499849985	6.821423658479184e-44
2.9997999799979995	2.5752529194532984e-44
3.4997499749974996	8.47248706558224e-45
3.9996999699969997	2.4315522877590156e-45
4.499649964996499	6.6006024449943094e-46
4.999599959995999	2.1346451015716327e-46
5.4995499549955	9.413085527030326e-47
5.999499949994999	4.931696148992029e-47
6.499449944994499	2.8300568601180535e-47
6.9993999399939995	1.7394123727983568e-47
7.499349934993499	1.1344549944107218e-47
7.999299929992999	7.810560231752718e-48
8.4992499249925	5.645212335540762e-48
8.999199919991998	4.262650787226293e-48
9.499149914991499	3.34744109745917e-48
9.999099909991	2.7222487735091725e-48
10.499049904990498	2.2945714315189154e-48
10.998999899989998	1.983006806441007e-48
11.498949894989499	1.751001124224898e-48
11.998899889988998	1.574911241078357e-48
12.498849884988498	1.4389379181074346e-48
12.998799879987999	1.3322863004192641e-48
13.498749874987498	1.2474309436925463e-48
13.998699869986998	1.1790288955889919e-48
14.498649864986499	1.123222978258583e-48
14.998599859985998	1.0771858152659105e-48
15.498549854985498	1.0388156189063956e-48
15.998499849984999	1.0065296464356986e-48
16.4984498449845	9.791216617408521e-49
16.998399839983996	9.556621114811877e-49
17.498349834983497	9.354272047213064e-49
17.998299829982997	9.178479073997795e-49
18.498249824982498	9.024727905571931e-49
18.998199819982	8.889406776007826e-49
19.4981498149815	8.769602903323625e-49
19.998099809980996	8.662949538369743e-49
20.498049804980496	8.567509943032482e-49
20.997999799979997	8.481688597063284e-49
21.497949794979498	8.404162770073406e-49
21.997899789978998	8.33382922636188e-49
22.4978497849785	8.269762569277423e-49
22.997799779977996	8.211182333950963e-49
23.497749774977496	8.157426878211371e-49
23.997699769976997	8.107932524797296e-49
24.497649764976497	8.062216793307827e-49
24.997599759975998	8.019864845299694e-49
25.4975497549755	7.980518465844634e-49
25.997499749974995	7.943867062077227e-49
26.497449744974496	7.909640269934735e-49
26.997399739973996	7.87760185306474e-49
27.497349734973497	7.847544650318436e-49
27.997299729972998	7.819286367299292e-49
28.497249724972498	7.792666048907448e-49
28.997199719971995	7.767541135367438e-49
29.497149714971496	7.74378496335989e-49
29.997099709970996	7.72128466592906e-49
30.497049704970497	7.699939377667263e-49
30.996999699969997	7.67965871837224e-49
31.496949694969498	7.660361482120498e-49
31.996899689968995	7.641974525606755e-49
32.496849684968495	7.624431805636989e-49
32.99679967996799	7.6076735473028e-49
33.496749674967496	7.5916455269736e-49
33.99669966996699	7.576298449546054e-49
34.4966496649665	7.561587405401552e-49
34.996599659965995	7.547471396348118e-49
35.4965496549655	7.533912921351845e-49
35.996499649964996	7.520877613089335e-49
36.49644964496449	7.508333918220981e-49
36.996399639964	7.496252815628561e-49
37.496349634963494	7.48460756742555e-49
37.996299629963	7.473373498563691e-49
38.496249624962495	7.46252780116684e-49
38.99619961996199	7.452049360601368e-49
39.496149614961496	7.441918600465953e-49
39.99609960996099	7.432117344418088e-49
40.4960496049605	7.422628692483008e-49
40.995999599959994	7.41343690987425e-49
41.4959495949595	7.404527327273349e-49
41.995899589958995	7.395886251246256e-49
42.49584958495849	7.387500884397018e-49
42.995799579957996	7.379359251909108e-49
43.49574957495749	7.371450135074487e-49
43.995699569957	7.36376301272632e-49
44.495649564956494	7.356288007292534e-49
44.99559955995599	7.349015834214818e-49
45.495549554955495	7.341937759133075e-49
45.99549954995499	7.335045556271751e-49
46.495449544954496	7.32833147088688e-49
46.99539953995399	7.321788187071244e-49
47.4953495349535	7.315408794414118e-49
47.995299529952995	7.309186762202329e-49
48.49524952495249	7.303115910899614e-49
48.995199519951996	7.297190390621029e-49
49.49514951495149	7.29140465694425e-49
49.995099509951	7.285753452923664e-49
50.495049504950494	7.280231788249442e-49
50.99499949994999	7.274834924277927e-49
51.494949494949495	7.269558356243219e-49
51.99489948994899	7.264397799998558e-49
52.494849484948496	7.259349177918336e-49
52.99479947994799	7.254408605907372e-49
53.49474947494749	7.24957238296299e-49
53.994699469946994	7.24483697908322e-49
54.49464946494649	7.240199025844513e-49
54.994599459945995	7.235655307435675e-49
55.49454945494549	7.231202751122245e-49
55.994499449944996	7.226838419628888e-49
56.49444944494449	7.222559503931258e-49
56.99439943994399	7.218363315612571e-49
57.494349434943494	7.214247280383714e-49
57.99429942994299	7.210208932384578e-49
58.494249424942495	7.206245908179706e-49
58.99419941994199	7.202355941218574e-49
59.49414941494149	7.198536856876404e-49
59.99409940994099	7.19478656796293e-49
60.49404940494049	7.191103070182905e-49
60.993999399939995	7.187484437859238e-49
61.49394939493949	7.183928820051559e-49
61.993899389938996	7.180434436918795e-49
62.49384938493849	7.176999576347259e-49
62.99379937993799	7.173622590663557e-49
63.493749374937494	7.17030189351003e-49
63.99369936993699	7.167035956961344e-49
64.49364936493649	7.16382330881476e-49
64.99359935993598	7.160662530025205e-49
65.4935493549355	7.157552252282502e-49
65.99349934993499	7.154491155729464e-49
66.49344934493449	7.15147796679592e-49
66.99339933993399	7.14851145612315e-49
67.4933493349335	7.145590436625522e-49
67.993299329933	7.142713761656482e-49
68.49324932493249	7.139880323263976e-49
68.99319931993199	7.137089050543841e-49
69.49314931493149	7.134338908070781e-49
69.993099309931	7.131628894415968e-49
70.4930493049305	7.128958040734319e-49
70.99299929992999	7.126325409423204e-49
71.49294929492949	7.123730092851179e-49
71.99289928992899	7.121171212146126e-49
72.4928492849285	7.118647916043125e-49
72.992799279928	7.116159379788507e-49
73.49274927492749	7.113704804096354e-49
73.99269926992699	7.111283414155972e-49
74.49264926492648	7.108894458683611e-49
74.992599259926	7.106537209020133e-49
75.49254925492549	7.10421095827115e-49
75.99249924992499	7.101915020484223e-49
76.49244924492449	7.099648729866609e-49
76.99239923992398	7.097411440036584e-49
77.4923492349235	7.095202523307806e-49
77.99229922992299	7.093021370006526e-49
78.49224922492249	7.090867387818085e-49
78.99219921992199	7.088740001163336e-49
79.4921492149215	7.086638650599604e-49
79.992099209921	7.084562792249186e-49
80.49204920492049	7.08251189726091e-49
80.99199919991999	7.080485451288855e-49
81.49194919491948	7.078482953982885e-49
81.991899189919	7.0765039185073e-49
82.4918491849185	7.074547871077717e-49
82.99179917991799	7.072614350518858e-49
83.49174917491749	7.070702907839331e-49
83.99169916991698	7.068813105822157e-49
84.4916491649165	7.066944518641032e-49
84.99159915991599	7.065096731513818e-49
85.49154915491549	7.063269340323725e-49
85.99149914991499	7.06146195125913e-49
86.49144914491448	7.059674180479468e-49
86.991399139914	7.057905653793428e-49
87.49134913491349	7.05615600635018e-49
87.99129912991299	7.05442488238534e-49
88.49124912491249	7.052711934942711e-49
88.99119911991198	7.05101682555605e-49
89.4911491149115	7.049339223980663e-49
89.99109910991099	7.047678807936677e-49
90.49104910491049	7.046035262886857e-49
90.99099909990998	7.044408281866369e-49
91.49094909490948	7.0427975651887e-49
91.99089908990899	7.04120282020397e-49
92.49084908490849	7.039623761084352e-49
92.99079907990799	7.038060108668152e-49
93.49074907490748	7.036511590324101e-49
93.990699069907	7.03497793966714e-49
94.49064906490649	7.033458896357697e-49
94.99059905990599	7.031954205939313e-49
95.49054905490549	7.03046361978359e-49
95.99049904990498	7.028986894854085e-49
96.4904490449045	7.02752379348295e-49
96.99039903990399	7.026074083226676e-49
97.49034903490349	7.024637536851052e-49
97.99029902990299	7.023213932128042e-49
98.49024902490248	7.02180305160635e-49
98.990199019902	7.020404682500149e-49
99.49014901490149	7.019018616715942e-49
99.99009900990099	7.017644650615527e-49
100.49004900490048	7.016282584815473e-49
100.98999899989998	7.014932224152878e-49
101.48994899489949	7.013593377692181e-49
101.98989898989899	7.012265858433539e-49
102.48984898489849	7.010949483190365e-49
102.98979897989798	7.009644072676495e-49
103.48974897489748	7.008349451323412e-49
103.98969896989699	7.007065447052005e-49
104.48964896489649	7.005791891316493e-49
104.98959895989599	7.004528619096661e-49
105.48954895489548	7.003275468595465e-49
105.98949894989498	7.002032281221639e-49
106.48944894489449	7.000798901696831e-49
106.98939893989399	6.999575177740411e-49
107.48934893489348	6.998360960000724e-49
107.98929892989298	6.997156102218553e-49
108.4892489248925	6.99596046092733e-49
108.98919891989199	6.994773895353941e-49
109.48914891489149	6.993596267611372e-49
109.98909890989098	6.992427442402303e-49
110.48904890489048	6.991267286923893e-49
110.98899889988999	6.990115671075282e-49
111.48894889488949	6.988972467136227e-49
111.98889888988899	6.987837549723001e-49
112.48884888488848	6.986710795979497e-49
112.98879887988798	6.985592085218733e-49
113.48874887488749	6.984481298983166e-49
113.98869886988699	6.983378321151597e-49
114.48864886488649	6.982283037577251e-49
114.98859885988598	6.981195336284282e-49
115.48854885488548	6.980115107401845e-49
115.98849884988499	6.979042242890985e-49
116.48844884488449	6.977976636837428e-49
116.98839883988398	6.976918185163631e-49
117.48834883488348	6.975866785584058e-49
117.98829882988298	6.974822337811321e-49
118.48824882488249	6.973784743161958e-49
118.98819881988199	6.972753904795286e-49
119.48814881488148	6.971729727602633e-49
119.98809880988098	6.97071211799926e-49
120.48804880488048	6.969700984231478e-49
120.98799879987999	6.968696235977815e-49
121.48794879487949	6.967697784545512e-49
121.98789878987898	6.966705542822226e-49
122.48784878487848	6.965719425038357e-49
122.98779877987799	6.964739347091154e-49
123.48774877487749	6.963765226132049e-49
123.98769876987699	6.962796980818913e-49
124.48764876487648	6.96183453118388e-49
124.98759875987598	6.960877798501604e-49
125.48754875487549	6.959926705542361e-49
125.98749874987499	6.958981176163264e-49
126.48744874487448	6.958041135669845e-49
126.98739873987398	6.957106510485252e-49
127.48734873487348	6.956177228282713e-49
127.98729872987299	6.955253217978579e-49
128.48724872487247	6.954334409523898e-49
128.98719871987197	6.95342073419927e-49
129.4871487148715	6.952512124198185e-49
129.987098709871	6.951608513011086e-49
130.4870487048705	6.950709835047666e-49
130.98699869986999	6.94981602587499e-49
131.48694869486948	6.948927022063864e-49
131.98689868986898	6.948042761167942e-49
132.48684868486848	6.947163181836253e-49
132.98679867986797	6.946288223549324e-49
133.48674867486747	6.945417826935476e-49
133.986698669867	6.944551933360605e-49
134.4866486648665	6.943690485329064e-49
134.986598659866	6.942833426056632e-49
135.4865486548655	6.941980699830144e-49
135.98649864986498	6.941132251671128e-49
136.48644864486448	6.940288027573325e-49
136.98639863986398	6.939447974310213e-49
137.48634863486348	6.938612039522187e-49
137.98629862986297	6.937780171676714e-49
138.48624862486247	6.936952320010057e-49
138.986198619862	6.93612843462488e-49
139.4861486148615	6.935308466309015e-49
139.986098609861	6.934492366743717e-49
140.48604860486049	6.933680088228346e-49
140.98599859985998	6.932871583970233e-49
141.48594859485948	6.932066807743248e-49
141.98589858985898	6.93126571423314e-49
142.48584858485847	6.93046825865349e-49
142.98579857985797	6.92967439712659e-49
143.4857485748575	6.928884086273792e-49
143.985698569857	6.928097283617414e-49
144.4856485648565	6.927313947157051e-49
144.985598559856	6.926534035784557e-49
145.48554855485548	6.925757508852555e-49
145.98549854985498	6.924984326596911e-49
146.48544854485448	6.92421444970223e-49
146.98539853985397	6.923447839728624e-49
147.48534853485347	6.922684458678056e-49
147.98529852985297	6.92192426942011e-49
148.4852485248525	6.921167235266226e-49
148.985198519852	6.920413320386548e-49
149.4851485148515	6.91966248940335e-49
149.98509850985099	6.918914707784328e-49
150.48504850485048	6.918169941473721e-49
150.98499849984998	6.917428157241036e-49
151.48494849484948	6.916689322375789e-49
151.98489848984897	6.915953404962554e-49
152.48484848484847	6.915220373673567e-49
152.98479847984797	6.914490197932652e-49
153.4847484748475	6.91376284784751e-49
153.984698469847	6.91303829422051e-49
154.4846484648465	6.91231650866604e-49
154.98459845984598	6.911597463424957e-49
155.48454845484548	6.910881131708545e-49
155.98449844984498	6.910167487285429e-49
156.48444844484447	6.90945650507253e-49
156.98439843984397	6.90874816049993e-49
157.48434843484347	6.908042430314888e-49
157.984298429843	6.907339291807884e-49
158.4842484248425	6.906638723698625e-49
158.984198419842	6.905940705409566e-49
159.48414841484148	6.905245217813729e-49
159.98409840984098	6.9045522428184e-49
160.48404840484048	6.90386176369495e-49
160.98399839983998	6.903173765279554e-49
161.48394839483947	6.90248823359373e-49
161.98389838983897	6.901805156932287e-49
162.48384838483847	6.901124524614043e-49
162.983798379838	6.900446328972666e-49
163.4837483748375	6.89977056350731e-49
163.983698369837	6.899097225212632e-49
164.48364836483648	6.898426313044844e-49
164.98359835983598	6.897757829451834e-49
165.48354835483548	6.897091780540961e-49
165.98349834983497	6.896428175406387e-49
166.48344834483447	6.895767029383011e-49
166.98339833983397	6.895108360317915e-49
167.48334833483347	6.89445219492951e-49
167.983298329833	6.893798563532887e-49
168.4832483248325	6.893147506696984e-49
168.98319831983198	6.892499073056975e-49
169.48314831483148	6.891853320228898e-49
169.98309830983098	6.891210322029743e-49
170.48304830483048	6.890570159679351e-49
170.98299829982997	6.889932942778811e-49
171.48294829482947	6.889298791450002e-49
171.98289828982897	6.888667854407993e-49
172.4828482848285	6.888040304610162e-49
172.982798279828	6.887416351577641e-49
173.4827482748275	6.886796287190478e-49
173.98269826982698	6.886180420121554e-49
174.48264826482648	6.885569098615027e-49
174.98259825982598	6.884962695522036e-49
175.48254825482547	6.884361866116629e-49
175.98249824982497	6.883767644492565e-49
176.48244824482447	6.88318095963376e-49
176.98239823982397	6.882602150474775e-49
177.4823482348235	6.882031543146021e-49
177.982298229823	6.881472675615868e-49
178.48224822482248	6.880932139686981e-49
178.98219821982198	6.88041323975469e-49
179.48214821482148	6.879907872938298e-49
179.98209820982098	6.879408201540107e-49
180.48204820482047	6.878948824704375e-49
180.98199819981997	6.878598476456093e-49
181.48194819481947	6.878373379147058e-49
181.98189818981896	6.878125662158643e-49
182.4818481848185	6.87771119861695e-49
182.98179817981799	6.877560060197383e-49
183.48174817481748	6.878570760730202e-49
183.98169816981698	6.881064351273518e-49
184.48164816481648	6.883319967006468e-49
184.98159815981597	6.883737472346658e-49
185.48154815481547	6.893459819050548e-49
185.98149814981497	6.936352845580513e-49
186.48144814481446	7.023881299292726e-49
186.981398139814	7.10330080994453e-49
187.4813481348135	7.102603254206589e-49
187.98129812981298	7.010295577458494e-49
188.48124812481248	6.902635137574404e-49
188.98119811981198	6.852105250208607e-49
189.48114811481148	6.855615693563274e-49
189.98109810981097	6.873008199604371e-49
190.48104810481047	6.87630188629971e-49
190.98099809980997	6.870306165986875e-49
191.48094809480946	6.864921163325813e-49
191.980898089809	6.863789180461706e-49
192.48084808480849	6.864385654423502e-49
192.98079807980798	6.86428489389493e-49
193.48074807480748	6.863322512401225e-49
193.98069806980698	6.862210430452601e-49
194.48064806480647	6.86141681268237e-49
194.98059805980597	6.860827905635375e-49
195.48054805480547	6.8602504727592e-49
195.98049804980496	6.859607674877402e-49
196.48044804480446	6.858942862906317e-49
196.980398039804	6.858299923714955e-49
197.48034803480348	6.857683139928297e-49
197.98029802980298	6.857077924011242e-49
198.48024802480248	6.856472980408286e-49
198.98019801980197	6.85586875830504e-49
199.48014801480147	6.855268216417964e-49
199.98009800980097	6.854672812720228e-49
200.48004800480047	6.854081477229107e-49
200.97999799979996	6.853492931677668e-49
201.4799479947995	6.852906571858752e-49
201.97989798979899	6.852322407378175e-49
202.47984798479848	6.851740453236522e-49
202.97979797979798	6.851160576428544e-49
203.47974797479748	6.850582567808273e-49
203.97969796979697	6.850006236083516e-49
204.47964796479647	6.849431476972143e-49
204.97959795979597	6.848858211823798e-49
205.47954795479546	6.848286363414634e-49
205.97949794979496	6.847715858474745e-49
206.4794479447945	6.847146624515816e-49
206.97939793979398	6.846578597112788e-49
207.47934793479348	6.846011726381258e-49
207.97929792979298	6.845445964092677e-49
208.47924792479247	6.844881266444995e-49
208.97919791979197	6.844317595188602e-49
209.47914791479147	6.843754912644049e-49
209.97909790979097	6.843193185400194e-49
210.47904790479046	6.842632383997582e-49
210.97899789978996	6.842072479357629e-49
211.47894789478948	6.841513445479781e-49
211.97889788978898	6.8409552585773856e-49
212.47884788478848	6.8403978951510185e-49
212.97879787978798	6.839841334110448e-49
213.47874787478747	6.839285555779779e-49
213.97869786978697	6.838730540717485e-49
214.47864786478647	6.8381762712910715e-49
214.97859785978596	6.83762273078033e-49
215.47854785478546	6.837069902657456e-49
215.978497849785	6.836517771775469e-49
216.47844784478448	6.835966323618734e-49
216.97839783978398	6.835415543823864e-49
217.47834783478348	6.834865419084074e-49
217.97829782978297	6.834315936556083e-49
218.47824782478247	6.833767083511979e-49
218.97819781978197	6.8332188480411886e-49
219.47814781478147	6.832671218597622e-49
219.97809780978096	6.832124183718236e-49
220.47804780478046	6.831577732576418e-49
220.97799779977998	6.8310318546512585e-49
221.47794779477948	6.8304865394784365e-49
221.97789778977898	6.829941777090816e-49
222.47784778477848	6.829397557793385e-49
222.97779777977797	6.8288538719277075e-49
223.47774777477747	6.828310710221422e-49
223.97769776977697	6.827768063656297e-49
224.47764776477646	6.827225923237347e-49
224.97759775977596	6.82668428026428e-49
225.47754775477546	6.826143126282593e-49
225.97749774977498	6.825602452854292e-49
226.47744774477448	6.825062251758798e-49
226.97739773977398	6.824522515017786e-49
227.47734773477347	6.823983234669223e-49
227.97729772977297	6.8234444029024685e-49
228.47724772477247	6.8229060121459125e-49
228.97719771977197	6.822368054850526e-49
229.47714771477146	6.821830523563417e-49
229.97709770977096	6.8212934110630896e-49
230.47704770477048	6.820756710163442e-49
230.97699769976998	6.820220413731636e-49
231.47694769476948	6.819684514848382e-49
231.97689768976898	6.819149006649621e-49
232.47684768476847	6.8186138822963155e-49
232.97679767976797	6.818079135130163e-49
233.47674767476747	6.817544758575603e-49
233.97669766976696	6.817010746066687e-49
234.47664766476646	6.816477091174173e-49
234.97659765976596	6.815943787581638e-49
235.47654765476548	6.8154108289784275e-49
235.97649764976498	6.814878209142196e-49
236.47644764476448	6.814345921987845e-49
236.97639763976397	6.813813961443095e-49
237.47634763476347	6.813282321480571e-49
237.97629762976297	6.8127509962186864e-49
238.47624762476246	6.812219979806603e-49
238.97619761976196	6.811689266410209e-49
239.47614761476146	6.8111588503226846e-49
239.97609760976096	6.8106287258985595e-49
240.47604760476048	6.810098887496846e-49
240.97599759975998	6.809569329564264e-49
241.47594759475948	6.809040046643547e-49
241.97589758975897	6.808511033283191e-49
242.47584758475847	6.8079822840753306e-49
242.97579757975797	6.807453793729138e-49
243.47574757475746	6.806925556974152e-49
243.97569756975696	6.8063975685537635e-49
244.47564756475646	6.805869823317016e-49
244.97559755975598	6.805342316164367e-49
245.47554755475548	6.8048150419990016e-49
245.97549754975498	6.804287995790536e-49
246.47544754475447	6.803761172596223e-49
246.97539753975397	6.8032345674800545e-49
247.47534753475347	6.802708175531357e-49
