f	psd[1/Hz]
1.0	1.6987586681672892e-43
1.4999499949994999	8.614910493657443e-44
1.9998999899989998	4.035461589071521e-44
2.4998499849985	1.7158115133278006e-44
2.9997999799979995	6.485912414590344e-45
3.4997499749974996	2.137524978695398e-45
3.9996999699969997	6.147372754675166e-46
4.499649964996499	1.6710718835412741e-46
4.999599959995999	5.3918778024153905e-47
5.4995499549955	2.360354675729889e-47
5.999499949994999	1.2233278602700548e-47
6.499449944994499	6.91712954993532e-48
6.9993999399939995	4.167037356747966e-48
7.499349934993499	2.6463910431797903e-48
7.999299929992999	1.760904382065866e-48
8.4992499249925	1.2201731321876073e-48
8.999199919991998	8.761629799682502e-49
9.499149914991499	6.493253267978761e-49
9.999099909991	4.950228437254592e-49
10.499049904990498	3.900007356170047e-49
10.998999899989998	3.138602045330425e-49
11.498949894989499	2.5745139683487097e-49
11.998899889988998	2.1486879967142357e-49
12.498849884988498	1.8217466916509394e-49
12.998799879987999	1.5668447072332048e-49
13.498749874987498	1.3653095701611677e-49
13.998699869986998	1.2039148558589526e-49
14.498649864986499	1.073134954044563e-49
14.998599859985998	9.660045727716171e-50
15.498549854985498	8.773590052990091e-50
15.998499849984999	8.03319103995146e-50
16.4984498449845	7.40936427388825e-50
16.998399839983996	6.8794511371693775e-50
17.498349834983497	6.425859091428247e-50
17.998299829982997	6.03479809245518e-50
18.498249824982498	5.695361897974841e-50
18.998199819982	5.398852816713921e-50
19.4981498149815	5.138280104169886e-50
19.998099809980996	4.907983657025433e-50
20.498049804980496	4.7033490502961225e-50
20.997999799979997	4.520589820735911e-50
21.497949794979498	4.356579887221892e-50
21.997899789978998	4.2087233078579355e-50
22.4978497849785	4.07485256337697e-50
22.997799779977996	3.9531483648469313e-50
23.497749774977496	3.8420761091781315e-50
23.997699769976997	3.7403351902691546e-50
24.497649764976497	3.646818317770106e-50
24.997599759975998	3.560578687692344e-50
25.4975497549755	3.480803344870221e-50
25.997499749974995	3.40679146525362e-50
26.497449744974496	3.337936557668924e-50
26.997399739973996	3.2737118121569802e-50
27.497349734973497	3.213657994977791e-50
27.997299729972998	3.15737339490338e-50
28.497249724972498	3.1045054285131085e-50
28.997199719971995	3.0547436452086493e-50
29.497149714971496	3.007813821891271e-50
29.997099709970996	2.963473009810269e-50
30.497049704970497	2.9215053247598513e-50
30.996999699969997	2.88171839739813e-50
31.496949694969498	2.843940326029844e-50
31.996899689968995	2.808017096431211e-50
32.496849684968495	2.7738103614842075e-50
32.99679967996799	2.7411955317920524e-50
33.496749674967496	2.710060135989585e-50
33.99669966996699	2.6803024036249213e-50
34.4966496649665	2.6518300359490876e-50
34.996599659965995	2.6245591382233236e-50
35.4965496549655	2.598413291022954e-50
35.996499649964996	2.573322739574235e-50
36.49644964496449	2.549223684163554e-50
36.996399639964	2.526057657947228e-50
37.496349634963494	2.5037709798388976e-50
37.996299629963	2.482314272646933e-50
38.496249624962495	2.4616420373429562e-50
38.99619961996199	2.4417122764935477e-50
39.496149614961496	2.422486160250717e-50
39.99609960996099	2.403927729893163e-50
40.4960496049605	2.3860036337908675e-50
40.995999599959994	2.3686828912518125e-50
41.4959495949595	2.3519366816639976e-50
41.995899589958995	2.3357381558369257e-50
42.49584958495849	2.320062268146981e-50
42.995799579957996	2.3048856234666745e-50
43.49574957495749	2.2901863392499363e-50
43.995699569957	2.2759439237287377e-50
44.495649564956494	2.2621391645886006e-50
44.99559955995599	2.248754025718103e-50
45.495549554955495	2.2357715587184644e-50
45.99549954995499	2.22317581841596e-50
46.495449544954496	2.210951786788542e-50
46.99539953995399	2.1990853069272276e-50
47.4953495349535	2.1875630168204305e-50
47.995299529952995	2.1763722962661876e-50
48.49524952495249	2.165501210756362e-50
48.995199519951996	2.154938467379658e-50
49.49514951495149	2.14467336756621e-50
49.995099509951	2.134695770326405e-50
50.495049504950494	2.1249960518916175e-50
50.99499949994999	2.1155650751400389e-50
51.494949494949495	2.106394155324244e-50
51.99489948994899	2.0974750333695076e-50
52.494849484948496	2.088799848410023e-50
52.99479947994799	2.0803611125098143e-50
53.49474947494749	2.0721516897375388e-50
53.994699469946994	2.064164773107282e-50
54.49464946494649	2.0563938659605896e-50
54.994599459945995	2.0488327643797796e-50
55.49454945494549	2.041475539027925e-50
55.994499449944996	2.0343165201949279e-50
56.49444944494449	2.027350283706989e-50
56.99439943994399	2.020571636410249e-50
57.494349434943494	2.0139756036311646e-50
57.99429942994299	2.0075574180178365e-50
58.494249424942495	2.0013125080905294e-50
58.99419941994199	1.995236487659605e-50
59.49414941494149	1.9893251462728648e-50
59.99409940994099	1.9835744405141163e-50
60.49404940494049	1.9779804853434587e-50
60.993999399939995	1.9725395459650577e-50
61.49394939493949	1.9672480303862136e-50
61.993899389938996	1.9621024824594993e-50
62.49384938493849	1.957099575407439e-50
62.99379937993799	1.9522361055644226e-50
63.493749374937494	1.94750898644394e-50
63.99369936993699	1.9429152432376034e-50
64.49364936493649	1.9384520076498137e-50
64.99359935993598	1.9341165130137334e-50
65.4935493549355	1.9299060896774633e-50
65.99349934993499	1.9258181606563934e-50
66.49344934493449	1.921850237517818e-50
66.99339933993399	1.9179999164398553e-50
67.4933493349335	1.9142648745292355e-50
67.993299329933	1.9106428663333106e-50
68.49324932493249	1.9071317205257177e-50
68.99319931993199	1.9037293367796694e-50
69.49314931493149	1.9004336827851068e-50
69.993099309931	1.8972427914340884e-50
70.4930493049305	1.8941547581394412e-50
70.99299929992999	1.8911677382848576e-50
71.49294929492949	1.8882799448119175e-50
71.99289928992899	1.8854896459190352e-50
72.4928492849285	1.882795162870595e-50
72.992799279928	1.8801948679190305e-50
73.49274927492749	1.8776871823177685e-50
73.99269926992699	1.8752705744388018e-50
74.49264926492648	1.872943557969206e-50
74.992599259926	1.8707046901955165e-50
75.49254925492549	1.8685525703687322e-50
75.99249924992499	1.866485838140294e-50
76.49244924492449	1.864503172074197e-50
76.99239923992398	1.8626032882211827e-50
77.4923492349235	1.860784938757694e-50
77.99229922992299	1.8590469106858807e-50
78.49224922492249	1.8573880245886217e-50
78.99219921992199	1.8558071334422907e-50
79.4921492149215	1.8543031214747704e-50
79.992099209921	1.852874903075523e-50
80.49204920492049	1.8515214217672042e-50
80.99199919991999	1.8502416492088988e-50
81.49194919491948	1.8490345842274172e-50
81.991899189919	1.8478992518974055e-50
82.4918491849185	1.846834702657865e-50
82.99179917991799	1.8458400114670093e-50
83.49174917491749	1.8449142769892937e-50
83.99169916991698	1.844056620813629e-50
84.4916491649165	1.8432661867165497e-50
84.99159915991599	1.8425421399898416e-50
85.49154915491549	1.84188366672133e-50
85.99149914991499	1.8412899731096388e-50
86.49144914491448	1.8407602848235792e-50
86.991399139914	1.8402938463856579e-50
87.49134913491349	1.8398899205804185e-50
87.99129912991299	1.8395477879536595e-50
88.49124912491249	1.8392667462762153e-50
88.99119911991198	1.8390461099471984e-50
89.4911491149115	1.8388852094790192e-50
89.99109910991099	1.838783391004068e-50
90.49104910491049	1.8387400158406436e-50
90.99099909990998	1.8387544601459797e-50
91.49094909490948	1.8388261143708804e-50
91.99089908990899	1.8389543828005468e-50
92.49084908490849	1.8391386831411976e-50
92.99079907990799	1.8393784462051195e-50
93.49074907490748	1.8396731156332668e-50
93.990699069907	1.840022147373805e-50
94.49064906490649	1.8404250092987867e-50
94.99059905990599	1.8408811808859241e-50
95.49054905490549	1.8413901530808857e-50
95.99049904990498	1.8419514278614624e-50
96.4904490449045	1.8425645178227637e-50
96.99039903990399	1.8432289458942603e-50
97.49034903490349	1.8439442452751918e-50
97.99029902990299	1.8447099590589355e-50
98.49024902490248	1.8455256398114098e-50
98.990199019902	1.8463908493478964e-50
99.49014901490149	1.8473051587460694e-50
99.99009900990099	1.8482681479153957e-50
100.49004900490048	1.849279405226927e-50
100.98999899989998	1.8503385274251868e-50
101.48994899489949	1.8514451196128328e-50
101.98989898989899	1.8525987947295023e-50
102.48984898489849	1.8537991733150722e-50
102.98979897989798	1.8550458836334875e-50
103.48974897489748	1.8563385613398515e-50
103.98969896989699	1.8576768490644802e-50
104.48964896489649	1.8590603964656717e-50
104.98959895989599	1.8604888601987844e-50
105.48954895489548	1.8619619033729834e-50
105.98949894989498	1.8634791955005052e-50
106.48944894489449	1.8650404126682082e-50
106.98939893989399	1.866645236971349e-50
107.48934893489348	1.868293356374503e-50
107.98929892989298	1.8699844649856129e-50
108.4892489248925	1.8717182625150808e-50
108.98919891989199	1.8734944540839409e-50
109.48914891489149	1.8753127505546735e-50
109.98909890989098	1.877172867993795e-50
110.48904890489048	1.8790745274870532e-50
110.98899889988999	1.8810174555018544e-50
111.48894889488949	1.8830013833024447e-50
111.98889888988899	1.8850260468571908e-50
112.48884888488848	1.8870911871772137e-50
112.98879887988798	1.8891965496592064e-50
113.48874887488749	1.891341884183941e-50
113.98869886988699	1.8935269453080104e-50
114.48864886488649	1.8957514915923654e-50
114.98859885988598	1.8980152859550092e-50
115.48854885488548	1.9003180955488527e-50
115.98849884988499	1.9026596912462978e-50
116.48844884488449	1.9050398481784334e-50
116.98839883988398	1.9074583451972656e-50
117.48834883488348	1.909914964783148e-50
117.98829882988298	1.912409493431995e-50
118.48824882488249	1.9149417209067294e-50
118.98819881988199	1.9175114406848446e-50
119.48814881488148	1.9201184497503552e-50
119.98809880988098	1.9227625481885318e-50
120.48804880488048	1.9254435397756555e-50
120.98799879987999	1.928161231209844e-50
121.48794879487949	1.9309154324867397e-50
121.98789878987898	1.933705956809867e-50
122.48784878487848	1.9365326201205223e-50
122.98779877987799	1.9393952417363086e-50
123.48774877487749	1.9422936435378815e-50
123.98769876987699	1.945227650465445e-50
124.48764876487648	1.9481970902618395e-50
124.98759875987598	1.9512017932039765e-50
125.48754875487549	1.9542415926162898e-50
125.98749874987499	1.9573163240449306e-50
126.48744874487448	1.960425825992329e-50
126.98739873987398	1.9635699392475854e-50
127.48734873487348	1.966748507154214e-50
127.98729872987299	1.9699613756043304e-50
128.48724872487247	1.9732083926036758e-50
128.98719871987197	1.976489408891669e-50
129.4871487148715	1.979804277070738e-50
129.987098709871	1.9831528524160706e-50
130.4870487048705	1.9865349920834457e-50
130.98699869986999	1.9899505556134685e-50
131.48694869486948	1.9933994046126587e-50
131.98689868986898	1.9968814027055682e-50
132.48684868486848	2.0003964157875117e-50
132.98679867986797	2.0039443114501764e-50
133.48674867486747	2.0075249596803635e-50
133.986698669867	2.0111382319610358e-50
134.4866486648665	2.014784002161149e-50
134.986598659866	2.0184621455928786e-50
135.4865486548655	2.022172539815703e-50
135.98649864986498	2.0259150638906944e-50
136.48644864486448	2.0296895989162875e-50
136.98639863986398	2.03349602760162e-50
137.48634863486348	2.0373342344639433e-50
137.98629862986297	2.0412041057488192e-50
138.48624862486247	2.045105529293919e-50
138.986198619862	2.0490383947673124e-50
139.4861486148615	2.0530025932430656e-50
139.986098609861	2.0569980177017162e-50
140.48604860486049	2.0610245623794203e-50
140.98599859985998	2.0650821234671486e-50
141.48594859485948	2.0691705982954905e-50
141.98589858985898	2.0732898861746026e-50
142.48584858485847	2.0774398874674677e-50
142.98579857985797	2.0816205045242274e-50
143.4857485748575	2.0858316406835667e-50
143.985698569857	2.090073201269165e-50
144.4856485648565	2.0943450925453838e-50
144.985598559856	2.0986472227557408e-50
145.48554855485548	2.1029795010487438e-50
145.98549854985498	2.1073418385464546e-50
146.48544854485448	2.111734147250952e-50
146.98539853985397	2.11615634113386e-50
147.48534853485347	2.1206083350344036e-50
147.98529852985297	2.1250900457570458e-50
148.4852485248525	2.1296013909791964e-50
148.985198519852	2.1341422903342532e-50
149.4851485148515	2.138712664360156e-50
149.98509850985099	2.143312435529622e-50
150.48504850485048	2.1479415272889344e-50
150.98499849984998	2.152599864977271e-50
151.48494849484948	2.157287375026864e-50
151.98489848984897	2.162003985691412e-50
152.48484848484847	2.1667496265013418e-50
152.98479847984797	2.171524228700218e-50
153.4847484748475	2.1763277250682886e-50
153.984698469847	2.1811600499512837e-50
154.4846484648465	2.1860211395747815e-50
154.98459845984598	2.190910931550829e-50
155.48454845484548	2.1958293657923133e-50
155.98449844984498	2.2007763834171344e-50
156.48444844484447	2.205751928311859e-50
156.98439843984397	2.210755945453728e-50
157.48434843484347	2.2157883830247483e-50
157.984298429843	2.2208491903807953e-50
158.4842484248425	2.2259383203630794e-50
158.984198419842	2.231055727408776e-50
159.48414841484148	2.2362013694804793e-50
159.98409840984098	2.2413752069999673e-50
160.48404840484048	2.2465772036785333e-50
160.98399839983998	2.25180732704854e-50
161.48394839483947	2.257065547472125e-50
161.98389838983897	2.2623518409277073e-50
162.48384838483847	2.267666185827404e-50
162.983798379838	2.2730085680547486e-50
163.4837483748375	2.278378976313259e-50
163.983698369837	2.28377740796318e-50
164.48364836483648	2.2892038652161494e-50
164.98359835983598	2.2946583589283355e-50
165.48354835483548	2.3001409090686097e-50
165.98349834983497	2.3056515430314596e-50
166.48344834483447	2.311190303737782e-50
166.98339833983397	2.3167572404537135e-50
167.48334833483347	2.3223524245048947e-50
167.983298329833	2.3279759363683486e-50
168.4832483248325	2.3336278820049533e-50
168.98319831983198	2.339308387643833e-50
169.48314831483148	2.3450176021656202e-50
169.98309830983098	2.3507557150342283e-50
170.48304830483048	2.35652293462512e-50
170.98299829982997	2.362319539264926e-50
171.48294829482947	2.368145834332378e-50
171.98289828982897	2.3740021984262466e-50
172.4828482848285	2.3798890728818976e-50
172.982798279828	2.385806987587593e-50
173.4827482748275	2.3917566696219294e-50
173.98269826982698	2.397738893586013e-50
174.48264826482648	2.403754562659681e-50
174.98259825982598	2.4098046560004195e-50
175.48254825482547	2.415890787128797e-50
175.98249824982497	2.42201542308217e-50
176.48244824482447	2.428180866266724e-50
176.98239823982397	2.4343883686259585e-50
177.4823482348235	2.440639216179933e-50
177.982298229823	2.4469415678459035e-50
178.48224822482248	2.4533101632904977e-50
178.98219821982198	2.4597532320039586e-50
179.48214821482148	2.4662560953160943e-50
179.98209820982098	2.472804785322925e-50
180.48204820482047	2.4794749872537283e-50
180.98199819981997	2.4864150883479576e-50
181.48194819481947	2.4936667059218363e-50
181.98189818981896	2.5009346728803654e-50
182.4818481848185	2.5079321816196826e-50
182.98179817981799	2.5155927679797397e-50
183.48174817481748	2.525854746596602e-50
183.98169816981698	2.539505212951746e-50
184.48164816481648	2.5531944427809405e-50
184.98159815981597	2.563924443078003e-50
185.48154815481547	2.5978481138490414e-50
185.98149814981497	2.711579810598291e-50
186.48144814481446	2.9368818610188086e-50
186.981398139814	3.1471213652729594e-50
187.4813481348135	3.152340975691781e-50
187.98129812981298	2.923724247256944e-50
188.48124812481248	2.665335214337081e-50
188.98119811981198	2.5515380819091874e-50
189.48114811481148	2.5675011126476204e-50
189.98109810981097	2.616991819192926e-50
190.48104810481047	2.632972182282055e-50
190.98099809980997	2.6266797941670697e-50
191.48094809480946	2.621904135060923e-50
191.980898089809	2.6273909861954477e-50
192.48084808480849	2.637077825568381e-50
192.98079807980798	2.645120452750966e-50
193.48074807480748	2.651111030327755e-50
193.98069806980698	2.656763759067709e-50
194.48064806480647	2.6632107878946493e-50
194.98059805980597	2.6701781736820362e-50
195.48054805480547	2.677197561416379e-50
195.98049804980496	2.6840815637106867e-50
196.48044804480446	2.690934898606052e-50
196.980398039804	2.6978641725258025e-50
197.48034803480348	2.7048798723954227e-50
197.98029802980298	2.711946411127339e-50
198.48024802480248	2.7190360894125258e-50
198.98019801980197	2.7261499200748836e-50
199.48014801480147	2.733295096876747e-50
199.98009800980097	2.7404751719095493e-50
200.48004800480047	2.747687508286443e-50
200.97999799979996	2.7549289431273013e-50
201.4799479947995	2.762197970382587e-50
201.97989798979899	2.76949460228349e-50
202.47984798479848	2.7768188653330464e-50
202.97979797979798	2.7841704252886817e-50
203.47974797479748	2.791548760070125e-50
203.97969796979697	2.7989533898842315e-50
204.47964796479647	2.8063840531341596e-50
204.97959795979597	2.8138405517875342e-50
205.47954795479546	2.8213226910868565e-50
205.97949794979496	2.8288302876934937e-50
206.4794479447945	2.8363631595143123e-50
206.97939793979398	2.8439211444780394e-50
207.47934793479348	2.8515041177491213e-50
207.97929792979298	2.8591119579849293e-50
208.47924792479247	2.866744555076051e-50
208.97919791979197	2.874401813307824e-50
209.47914791479147	2.8820836377978604e-50
209.97909790979097	2.8897899446235384e-50
210.47904790479046	2.8975206600307218e-50
210.97899789978996	2.905275710716311e-50
211.47894789478948	2.9130550314143206e-50
211.97889788978898	2.9208585625225746e-50
212.47884788478848	2.928686244729789e-50
212.97879787978798	2.9365380251094153e-50
213.47874787478747	2.9444138543061964e-50
213.97869786978697	2.952313683183263e-50
214.47864786478647	2.9602374674862264e-50
214.97859785978596	2.968185165220137e-50
215.47854785478546	2.9761567345465358e-50
215.978497849785	2.9841521374288623e-50
216.47844784478448	2.9921713373589916e-50
216.97839783978398	3.000214297913325e-50
217.47834783478348	3.00828098564502e-50
217.97829782978297	3.0163713682070785e-50
218.47824782478247	3.0244854132607346e-50
218.97819781978197	3.03262309082824e-50
219.47814781478147	3.040784371790807e-50
219.97809780978096	3.0489692269630865e-50
220.47804780478046	3.057177629047733e-50
220.97799779977998	3.0654095514799067e-50
221.47794779477948	3.0736649675611477e-50
221.97789778977898	3.081943852105194e-50
222.47784778477848	3.09024618060755e-50
222.97779777977797	3.0985719283756496e-50
223.47774777477747	3.106921071914424e-50
223.97769776977697	3.1152935884116787e-50
224.47764776477646	3.1236894548296942e-50
224.97759775977596	3.132108649049275e-50
225.47754775477546	3.1405511496705694e-50
225.97749774977498	3.149016935052021e-50
226.47744774477448	3.157505984211326e-50
226.97739773977398	3.166018276942155e-50
227.47734773477347	3.1745537928061255e-50
227.97729772977297	3.1831125117780825e-50
228.47724772477247	3.191694414667396e-50
228.97719771977197	3.2002994820919344e-50
229.47714771477146	3.2089276948541237e-50
229.97709770977096	3.2175790346263967e-50
230.47704770477048	3.2262534829666074e-50
230.97699769976998	3.234951021422582e-50
231.47694769476948	3.2436716323890344e-50
231.97689768976898	3.25241529826755e-50
232.47684768476847	3.26118200131203e-50
232.97679767976797	3.2699717245055015e-50
233.47674767476747	3.2787844510133973e-50
233.97669766976696	3.2876201637749046e-50
234.47664766476646	3.296478846253994e-50
234.97659765976596	3.305360482302612e-50
235.47654765476548	3.3142650555296013e-50
235.97649764976498	3.3231925498120617e-50
236.47644764476448	3.3321429496019105e-50
236.97639763976397	3.3411162391575436e-50
237.47634763476347	3.350112402753701e-50
237.97629762976297	3.3591314253354145e-50
238.47624762476246	3.3681732917777564e-50
238.97619761976196	3.3772379867993654e-50
239.47614761476146	3.3863254957066925e-50
239.97609760976096	3.3954358039545155e-50
240.47604760476048	3.4045688967640287e-50
240.97599759975998	3.413724759703739e-50
241.47594759475948	3.4229033787505752e-50
241.97589758975897	3.4321047396618284e-50
242.47584758475847	3.441328828249191e-50
242.97579757975797	3.4505756309113137e-50
243.47574757475746	3.4598451339382017e-50
