f	psd[1/Hz]
1.0	2.499301408594976e-44
1.4999499949994999	3.727209193386259e-43
1.9998999899989998	1.0071174071970554e-42
2.4998499849985	1.7967222091907698e-42
2.9997999799979995	2.638361784942578e-42
3.4997499749974996	3.453660701259709e-42
3.9996999699969997	4.1857572883162634e-42
4.499649964996499	4.796223572927198e-42
4.999599959995999	5.262189488912995e-42
5.4995499549955	5.5736713645559744e-42
5.999499949994999	5.7311046871482493e-42
6.499449944994499	5.743081144629719e-42
6.9993999399939995	5.6242899443186576e-42
7.499349934993499	5.393663408732649e-42
7.999299929992999	5.072726848501082e-42
8.4992499249925	4.684152712368937e-42
8.999199919991998	4.2505190142917176e-42
9.499149914991499	3.793272037621643e-42
9.999099909991	3.3318933163851016e-42
10.499049904990498	2.88327089365137e-42
10.998999899989998	2.46127485699252e-42
11.498949894989499	2.0765371510346262e-42
11.998899889988998	1.7364356671001958e-42
12.498849884988498	1.4452826099418347e-42
12.998799879987999	1.2047171415671782e-42
13.498749874987498	1.0133124293454617e-42
13.998699869986998	8.628585215153458e-43
14.498649864986499	7.443718154182377e-43
14.998599859985998	6.506143213146494e-43
15.498549854985498	5.757478471816362e-43
15.998499849984999	5.150352958451936e-43
16.4984498449845	4.645952137794695e-43
16.998399839983996	4.2120959157279595e-43
17.498349834983497	3.822355109533497e-43
17.998299829982997	3.4642771316982977e-43
18.498249824982498	3.135887731004009e-43
18.998199819982	2.835598769832828e-43
19.4981498149815	2.5618396905097064e-43
19.998099809980996	2.3130630559901477e-43
20.498049804980496	2.0877502135818617e-43
20.997999799979997	1.8844170817003067e-43
21.497949794979498	1.701620059658069e-43
21.997899789978998	1.5379620604881163e-43
22.4978497849785	1.3920986668009185e-43
22.997799779977996	1.26274440967543e-43
23.497749774977496	1.1486135889487032e-43
23.997699769976997	1.0480684225737106e-43
24.497649764976497	9.594562591350267e-44
24.997599759975998	8.813024030234777e-44
25.4975497549755	8.12292348743306e-44
25.997499749974995	7.512545812421171e-44
26.497449744974496	6.971446828052288e-44
26.997399739973996	6.49030746514412e-44
27.497349734973497	6.060800962710339e-44
27.997299729972998	5.675473133835979e-44
28.497249724972498	5.327635697196801e-44
28.997199719971995	5.011272674222692e-44
29.497149714971496	4.720959851904984e-44
29.997099709970996	4.451797311247777e-44
30.497049704970497	4.199355021363258e-44
30.996999699969997	3.9597744677359004e-44
31.496949694969498	3.731417932363094e-44
31.996899689968995	3.514057372723153e-44
32.496849684968495	3.307479723744309e-44
32.99679967996799	3.111458755625865e-44
33.496749674967496	2.9257562058171816e-44
33.99669966996699	2.750122955828058e-44
34.4966496649665	2.5843002528704646e-44
34.996599659965995	2.428020976331681e-44
35.4965496549655	2.2810109490787484e-44
35.996499649964996	2.1429902935943636e-44
36.49644964496449	2.0136748329440822e-44
36.996399639964	1.8927775365749323e-44
37.496349634963494	1.7800100109453852e-44
37.996299629963	1.6750840349867024e-44
38.496249624962495	1.5777131403956455e-44
38.99619961996199	1.487614236758567e-44
39.496149614961496	1.4044928413411483e-44
39.99609960996099	1.327895327747985e-44
40.4960496049605	1.2572986456786907e-44
40.995999599959994	1.1922155807303126e-44
41.4959495949595	1.1321936070114126e-44
41.995899589958995	1.0768124345082438e-44
42.49584958495849	1.0256816732279763e-44
42.995799579957996	9.784386141189643e-45
43.49574957495749	9.347461267680658e-45
43.995699569957	8.942906738749917e-45
44.495649564956494	8.567804425037172e-45
44.99559955995599	8.219435921109232e-45
45.495549554955495	7.895266193514902e-45
45.99549954995499	7.592928396610338e-45
46.495449544954496	7.310209856154867e-45
46.99539953995399	7.045039220677213e-45
47.4953495349535	6.795474780612223e-45
47.995299529952995	6.559693955207999e-45
48.49524952495249	6.335983947203478e-45
48.995199519951996	6.122733565276473e-45
49.49514951495149	5.918426214262156e-45
49.995099509951	5.721634053141962e-45
50.495049504950494	5.531017276989918e-45
50.99499949994999	5.3457045505938445e-45
51.494949494949495	5.165576967293843e-45
51.99489948994899	4.9905915873214925e-45
52.494849484948496	4.8207023898316505e-45
52.99479947994799	4.655860402970557e-45
53.49474947494749	4.496013837822478e-45
53.994699469946994	4.341108226235e-45
54.49464946494649	4.191086562522934e-45
54.994599459945995	4.045889449050814e-45
55.49454945494549	3.9054552456940307e-45
55.994499449944996	3.769720223178537e-45
56.49444944494449	3.6386187202992396e-45
56.99439943994399	3.5120833050168993e-45
57.494349434943494	3.3900449394337404e-45
57.99429942994299	3.272433148647614e-45
58.494249424942495	3.159176193484792e-45
58.99419941994199	3.0502012471113725e-45
59.49414941494149	2.945434575523297e-45
59.99409940994099	2.844801721914964e-45
60.49404940494049	2.7482276949264932e-45
60.993999399939995	2.655637160769551e-45
61.49394939493949	2.566954639231838e-45
61.993899389938996	2.482104703560134e-45
62.49384938493849	2.401012184222015e-45
62.99379937993799	2.3236023765461312e-45
63.493749374937494	2.249798469998952e-45
63.99369936993699	2.179472793604257e-45
64.49364936493649	2.1124564400995085e-45
64.99359935993598	2.048586111214688e-45
65.4935493549355	1.987705496885657e-45
65.99349934993499	1.9296649733795935e-45
66.49344934493449	1.874321310132308e-45
66.99339933993399	1.821537385297484e-45
67.4933493349335	1.7711819100078025e-45
67.993299329933	1.723129161347972e-45
68.49324932493249	1.6772587240396524e-45
68.99319931993199	1.6334552408382927e-45
69.49314931493149	1.591608171641852e-45
69.993099309931	1.5516115613114302e-45
70.4930493049305	1.5133638162037973e-45
70.99299929992999	1.4767674894158185e-45
71.49294929492949	1.4417290747407852e-45
71.99289928992899	1.4081588093366408e-45
72.4928492849285	1.3759704851061073e-45
72.992799279928	1.3450812687887202e-45
73.49274927492749	1.3154115307647455e-45
73.99269926992699	1.2868846825710123e-45
74.49264926492648	1.2594270231286413e-45
74.992599259926	1.2329675936826676e-45
75.49254925492549	1.207438041453574e-45
75.99249924992499	1.1827724920007102e-45
76.49244924492449	1.158907430297624e-45
76.99239923992398	1.1357815905192875e-45
77.4923492349235	1.113335854541223e-45
77.99229922992299	1.0915131591505305e-45
78.49224922492249	1.0702584119688097e-45
78.99219921992199	1.0495184160869905e-45
79.4921492149215	1.0292418034120584e-45
79.992099209921	1.0093789767256781e-45
80.49204920492049	9.898884618665181e-46
80.99199919991999	9.707597472428529e-46
81.49194919491948	9.519910828458862e-46
81.991899189919	9.335806368076697e-46
82.4918491849185	9.155264974534723e-46
82.99179917991799	8.978266763972422e-46
83.49174917491749	8.80479111694393e-46
83.99169916991698	8.634816710519305e-46
84.4916491649165	8.468321550959044e-46
84.99159915991599	8.305283006962006e-46
85.49154915491549	8.145677843486593e-46
85.99149914991499	7.989482256145273e-46
86.49144914491448	7.836671906172498e-46
86.991399139914	7.687221955965814e-46
87.49134913491349	7.541107105200461e-46
87.99129912991299	7.39830162751714e-46
88.49124912491249	7.258779407783236e-46
88.99119911991198	7.12251397992729e-46
89.4911491149115	6.989478565346813e-46
89.99109910991099	6.859646111889477e-46
90.49104910491049	6.732989333407541e-46
90.99099909990998	6.609480749885682e-46
91.49094909490948	6.489092728142119e-46
91.99089908990899	6.3717975231030664e-46
92.49084908490849	6.257567319650535e-46
92.99079907990799	6.146374275043412e-46
93.49074907490748	6.038190561911923e-46
93.990699069907	5.932988411825373e-46
94.49064906490649	5.830740159433275e-46
94.99059905990599	5.731418287179719e-46
95.49054905490549	5.634995470591153e-46
95.99049904990498	5.541444624137433e-46
96.4904490449045	5.450738947666234e-46
96.99039903990399	5.3628519734107596e-46
97.49034903490349	5.277757613570803e-46
97.99029902990299	5.195430208467132e-46
98.49024902490248	5.115844575269168e-46
98.990199019902	5.038976057296047e-46
99.49014901490149	4.964800573890958e-46
99.99009900990099	4.8932909502244974e-46
100.49004900490048	4.824382148863072e-46
100.98999899989998	4.757988152496073e-46
101.48994899489949	4.694025109480058e-46
101.98989898989899	4.632411556843537e-46
102.48984898489849	4.5730683338981525e-46
102.98979897989798	4.5159184976918934e-46
103.48974897489748	4.4608872403041195e-46
103.98969896989699	4.407901807982611e-46
104.48964896489649	4.356891422122474e-46
104.98959895989599	4.307787202086991e-46
105.48954895489548	4.260522089870417e-46
105.98949894989498	4.215030776602664e-46
106.48944894489449	4.171249630895928e-46
106.98939893989399	4.1291166290332544e-46
107.48934893489348	4.088571286999002e-46
107.98929892989298	4.0495545943512375e-46
108.4892489248925	4.012008949936063e-46
108.98919891989199	3.9758780994438755e-46
109.48914891489149	3.9411070748075145e-46
109.98909890989098	3.907642135442387e-46
110.48904890489048	3.875430711328462e-46
110.98899889988999	3.844421347934231e-46
111.48894889488949	3.814563652982574e-46
111.98889888988899	3.785808245058552e-46
112.48884888488848	3.758106704059126e-46
112.98879887988798	3.7314115234847945e-46
113.48874887488749	3.705676064573166e-46
113.98869886988699	3.680854512274454e-46
114.48864886488649	3.656901833068872e-46
114.98859885988598	3.6337737346260045e-46
115.48854885488548	3.61142662730604e-46
115.98849884988499	3.589817587502974e-46
116.48844884488449	3.568904322829728e-46
116.98839883988398	3.548645139145172e-46
117.48834883488348	3.528998909423091e-46
117.98829882988298	3.5099250444630745e-46
118.48824882488249	3.491383465443321e-46
118.98819881988199	3.4733345783153725e-46
119.48814881488148	3.45573925004078e-46
119.98809880988098	3.4385587866696748e-46
120.48804880488048	3.4217549132612786e-46
120.98799879987999	3.4052897556463504e-46
121.48794879487949	3.38912582403151e-46
121.98789878987898	3.3732259984455574e-46
122.48784878487848	3.3575535160276414e-46
122.98779877987799	3.342071960157405e-46
123.48774877487749	3.326748590762443e-46
123.98769876987699	3.311573760289374e-46
124.48764876487648	3.2965474274494937e-46
124.98759875987598	3.281669582267618e-46
125.48754875487549	3.266940213766223e-46
125.98749874987499	3.2523593100995525e-46
126.48744874487448	3.2379268586885908e-46
126.98739873987398	3.223642846356969e-46
127.48734873487348	3.2095072594677412e-46
127.98729872987299	3.195520084061069e-46
128.48724872487247	3.1816813059928078e-46
128.98719871987197	3.1679909110739726e-46
129.4871487148715	3.154448885211126e-46
129.987098709871	3.14105521454764e-46
130.4870487048705	3.127809885605863e-46
130.98699869986999	3.1147128854301964e-46
131.48694869486948	3.101764201731039e-46
131.98689868986898	3.0889638230296643e-46
132.48684868486848	3.0763117388039624e-46
132.98679867986797	3.063807939635105e-46
133.48674867486747	3.0514524173550887e-46
133.986698669867	3.0392451651951753e-46
134.4866486648665	3.0271861779352596e-46
134.986598659866	3.0152754520540816e-46
135.4865486548655	3.0035129858803886e-46
135.98649864986498	2.991898779744952e-46
136.48644864486448	2.980432836133512e-46
136.98639863986398	2.9691151598406055e-46
137.48634863486348	2.9579457581242812e-46
137.98629862986297	2.946924640861745e-46
138.48624862486247	2.9360518207058567e-46
138.986198619862	2.925327313242558e-46
139.4861486148615	2.914751137149191e-46
139.986098609861	2.9043233143537007e-46
140.48604860486049	2.894043870194752e-46
140.98599859985998	2.883912833582725e-46
141.48594859485948	2.8739302371616268e-46
141.98589858985898	2.8640961174718873e-46
142.48584858485847	2.854410515114053e-46
142.98579857985797	2.8448734749133858e-46
143.4857485748575	2.8354850460853456e-46
143.985698569857	2.8262452824019906e-46
144.4856485648565	2.8171542423592453e-46
144.985598559856	2.8082119893450944e-46
145.48554855485548	2.7994185918086563e-46
145.98549854985498	2.7907741234301605e-46
146.48544854485448	2.7822786632918177e-46
146.98539853985397	2.773932296049591e-46
147.48534853485347	2.7657351121058616e-46
147.98529852985297	2.757687207782994e-46
148.4852485248525	2.7497886854977906e-46
148.985198519852	2.742039653936862e-46
149.4851485148515	2.734440228232865e-46
149.98509850985099	2.726990530141668e-46
150.48504850485048	2.719690688220389e-46
150.98499849984998	2.7125408380063537e-46
151.48494849484948	2.7055411221969177e-46
151.98489848984897	2.6986916908302355e-46
152.48484848484847	2.6919927014668627e-46
152.98479847984797	2.685444319372321e-46
153.4847484748475	2.6790467177005094e-46
153.984698469847	2.6728000776780365e-46
154.4846484648465	2.6667045887894497e-46
154.98459845984598	2.6607604489633493e-46
155.48454845484548	2.6549678647594116e-46
155.98449844984498	2.6493270515563064e-46
156.48444844484447	2.643838233740502e-46
156.98439843984397	2.6385016448959886e-46
157.48434843484347	2.63331752799487e-46
157.984298429843	2.62828613558887e-46
158.4842484248425	2.623407730001747e-46
158.984198419842	2.6186825835225724e-46
159.48414841484148	2.6141109785999383e-46
159.98409840984098	2.609693208037046e-46
160.48404840484048	2.6054295751876918e-46
160.98399839983998	2.6013203933914943e-46
161.48394839483947	2.597365552039707e-46
161.98389838983897	2.5935637920757384e-46
162.48384838483847	2.5899136785765712e-46
162.983798379838	2.5864137926314435e-46
163.4837483748375	2.583062731025426e-46
163.983698369837	2.579859105925388e-46
164.48364836483648	2.5768015445682825e-46
164.98359835983598	2.5738886889518353e-46
165.48354835483548	2.5711191955275487e-46
165.98349834983497	2.5684917348960896e-46
166.48344834483447	2.5660049915050254e-46
166.98339833983397	2.5636576633489152e-46
167.48334833483347	2.561448461671769e-46
167.983298329833	2.5593761106718493e-46
168.4832483248325	2.557439347208844e-46
168.98319831983198	2.555636920513389e-46
169.48314831483148	2.553967591898953e-46
169.98309830983098	2.5524301344760704e-46
170.48304830483048	2.5510233328689505e-46
170.98299829982997	2.549745982934422e-46
171.48294829482947	2.5485968914832522e-46
171.98289828982897	2.5475748760038134e-46
172.4828482848285	2.5466787643881088e-46
172.982798279828	2.5459073946601642e-46
173.4827482748275	2.5452596147067677e-46
173.98269826982698	2.5447342820105634e-46
174.48264826482648	2.544330263385523e-46
174.98259825982598	2.5440464347147474e-46
175.48254825482547	2.5438816806906484e-46
175.98249824982497	2.5438348945574762e-46
176.48244824482447	2.5439049778562058e-46
176.98239823982397	2.544090840171788e-46
177.4823482348235	2.544391398882743e-46
177.982298229823	2.5448055789131295e-46
178.48224822482248	2.545332312486861e-46
178.98219821982198	2.5459705388843815e-46
179.48214821482148	2.546719204201695e-46
179.98209820982098	2.54757726111176e-46
180.48204820482047	2.5485436686282365e-46
180.98199819981997	2.549617391871597e-46
181.48194819481947	2.5507974018375787e-46
181.98189818981896	2.552082675168013e-46
182.4818481848185	2.553472193924004e-46
182.98179817981799	2.5549649453614627e-46
183.48174817481748	2.556559921708999e-46
183.98169816981698	2.5582561199481703e-46
184.48164816481648	2.560052541596105e-46
184.98159815981597	2.5619481924904476e-46
185.48154815481547	2.5639420825766966e-46
185.98149814981497	2.566033225697884e-46
186.48144814481446	2.5682206393866072e-46
186.981398139814	2.5705033446594365e-46
187.4813481348135	2.5728803658136584e-46
187.98129812981298	2.5753507302263915e-46
188.48124812481248	2.577913468156058e-46
188.98119811981198	2.580567612546208e-46
189.48114811481148	2.583312198831701e-46
189.98109810981097	2.586146264747251e-46
190.48104810481047	2.589068850138324e-46
190.98099809980997	2.592078996774399e-46
191.48094809480946	2.5951757481645752e-46
191.980898089809	2.598358149375547e-46
192.48084808480849	2.601625246851935e-46
192.98079807980798	2.604976088238972e-46
193.48074807480748	2.6084097222075463e-46
193.98069806980698	2.611925198281604e-46
194.48064806480647	2.6155215666679125e-46
194.98059805980597	2.6191978780881666e-46
195.48054805480547	2.6229531836134787e-46
195.98049804980496	2.6267865345011975e-46
196.48044804480446	2.6306969820341037e-46
196.980398039804	2.634683577361963e-46
197.48034803480348	2.6387453713454143e-46
197.98029802980298	2.6428814144022457e-46
198.48024802480248	2.647090756356017e-46
198.98019801980197	2.651372446287024e-46
199.48014801480147	2.6557255323856436e-46
199.98009800980097	2.6601490618080208e-46
200.48004800480047	2.6646420805341227e-46
200.97999799979996	2.6692036332281464e-46
201.4799479947995	2.673832763101281e-46
201.97989798979899	2.678528511776826e-46
202.47984798479848	2.6832899191576884e-46
202.97979797979798	2.6881160232961977e-46
203.47974797479748	2.6930058602663204e-46
203.97969796979697	2.697958464038202e-46
204.47964796479647	2.702972866355079e-46
204.97959795979597	2.7080480966125505e-46
205.47954795479546	2.713183181740204e-46
205.97949794979496	2.718377146085588e-46
206.4794479447945	2.7236290113005706e-46
206.97939793979398	2.72893779623002e-46
207.47934793479348	2.7343025168028672e-46
207.97929792979298	2.7397221859255265e-46
208.47924792479247	2.745195813377652e-46
208.97919791979197	2.750722405710278e-46
209.47914791479147	2.7563009661462976e-46
209.97909790979097	2.7619304944833097e-46
210.47904790479046	2.76760998699882e-46
210.97899789978996	2.7733384363577923e-46
211.47894789478948	2.7791148315225778e-46
211.97889788978898	2.7849381576651754e-46
212.47884788478848	2.7908073960818736e-46
212.97879787978798	2.7967215241102293e-46
213.47874787478747	2.8026795150484214e-46
213.97869786978697	2.8086803380769512e-46
214.47864786478647	2.8147229581827054e-46
214.97859785978596	2.8208063360853696e-46
215.47854785478546	2.826929428166216e-46
215.978497849785	2.833091186399227e-46
216.47844784478448	2.8392905582845833e-46
216.97839783978398	2.845526486784527e-46
217.47834783478348	2.8517979102615597e-46
217.97829782978297	2.858103762419003e-46
218.47824782478247	2.8644429722439292e-46
218.97819781978197	2.870814463952431e-46
219.47814781478147	2.8772171569372687e-46
219.97809780978096	2.8836499657178508e-46
220.47804780478046	2.890111799892597e-46
220.97799779977998	2.8966015647999286e-46
221.47794779477948	2.9031184323731253e-46
221.97789778977898	2.909662252223421e-46
222.47784778477848	2.916232978354151e-46
222.97779777977797	2.922830564459637e-46
223.47774777477747	2.9294549639214503e-46
223.97769776977697	2.936106129804681e-46
224.47764776477646	2.942784014854236e-46
224.97759775977596	2.9494885714911346e-46
225.47754775477546	2.9562197518088703e-46
225.97749774977498	2.96297750756975e-46
226.47744774477448	2.969761790201287e-46
226.97739773977398	2.976572550792592e-46
227.47734773477347	2.9834097400908e-46
227.97729772977297	2.9902733084975188e-46
228.47724772477247	2.9971632060652902e-46
228.97719771977197	3.0040793824940775e-46
229.47714771477146	3.0110217871277795e-46
229.97709770977096	3.017990368950759e-46
230.47704770477048	3.02498507658439e-46
230.97699769976998	3.0320058582836443e-46
231.47694769476948	3.0390526619336715e-46
231.97689768976898	3.046125435046436e-46
232.47684768476847	3.053224124757332e-46
232.97679767976797	3.060348677821871e-46
233.47674767476747	3.067499040612336e-46
233.97669766976696	3.0746751591145132e-46
234.47664766476646	3.0818769789243953e-46
234.97659765976596	3.0891044452449325e-46
235.47654765476548	3.0963575028828206e-46
235.97649764976498	3.1036360962452648e-46
236.47644764476448	3.1109401693368027e-46
236.97639763976397	3.118269665756146e-46
237.47634763476347	3.1256245286930213e-46
237.97629762976297	3.1330047009250527e-46
238.47624762476246	3.1404101248146678e-46
238.97619761976196	3.1478407423060024e-46
239.47614761476146	3.1552964949218518e-46
239.97609760976096	3.162777323760637e-46
240.47604760476048	3.1702831694933804e-46
240.97599759975998	3.1778139723607148e-46
241.47594759475948	3.185369672169917e-46
241.97589758975897	3.1929502082919485e-46
242.47584758475847	3.2005555196585342e-46
242.97579757975797	3.20818554475925e-46
243.47574757475746	3.2158402216386434e-46
243.97569756975696	3.2235194878933625e-46
244.47564756475646	3.231223280669314e-46
