f	psd[1/Hz]
1.0	6.045529008999999e-31
1.0093	5.221507600000001e-31
1.0186	4.5100626489999995e-31
1.028	3.895507395999999e-31
1.0376	3.364812049e-31
1.0472	2.9065037440000008e-31
1.0569	2.5107114489999997e-31
1.0667	2.1687648999999996e-31
1.0765	1.8735046560000005e-31
1.0865	1.6184528999999996e-31
1.0966	1.3981616639999998e-31
1.1067	1.207910025e-31
1.117	1.043548416e-31
1.1273	9.01620729e-32
1.1378	7.789680999999999e-32
1.1483	6.73039249e-32
1.1589	5.815332250000002e-32
1.1697	5.024770560000001e-32
1.1805	4.34180569e-32
1.1915	3.751969e-32
1.2025	3.2421603599999994e-32
1.2136	2.8016064399999997e-32
1.2249	2.4211360000000002e-32
1.2362	2.0923622499999997e-32
1.2477	1.80848704e-32
1.2592	1.5630000400000003e-32
1.2709	1.3509412900000004e-32
1.2826	1.16769636e-32
1.2945	1.0092211599999999e-32
1.3065	8.723746801000001e-33
1.3186	7.541011921e-33
1.3308	6.518947600000001e-33
1.3432	5.6356550409999994e-33
1.3556	4.872179601e-33
1.3682	4.2122696039999986e-33
1.3808	3.642001800999999e-33
1.3936	3.149005455999999e-33
1.4065	2.7228567609999997e-33
1.4196	2.354481529e-33
1.4327	2.0359948839999998e-33
1.446	1.7607255210000006e-33
1.4594	1.5227164839999996e-33
1.4729	1.3169641e-33
1.4865	1.138995001e-33
1.5003	9.85206544e-34
1.5142	8.521728639999998e-34
1.5282	7.371768009999998e-34
1.5424	6.3771400900000015e-34
1.5567	5.51686144e-34
1.5711	4.772914089999999e-34
1.5856	4.12983684e-34
1.6003	3.5732340900000007e-34
1.6151	3.0919705599999995e-34
1.6301	2.67551449e-34
1.6452	2.3155708899999997e-34
1.6604	2.0039233599999995e-34
1.6758	1.7344890000000003e-34
1.6913	1.5011150400000002e-34
1.707	1.2993720100000001e-34
1.7228	1.1248723599999998e-34
1.7388	9.738729224999998e-35
1.7549	8.431646976e-35
1.7711	7.300506249e-35
1.7875	6.321681081e-35
1.8041	5.474668080999999e-35
1.8208	4.742112768999999e-35
1.8377	4.1091946089999995e-35
1.8547	3.5670756250000006e-35
1.8719	3.226126401e-35
1.8892	2.722021929e-35
1.9067	2.3188077160000005e-35
1.9244	2.005158841e-35
1.9422	1.7363055609999997e-35
1.9602	1.5041210889999996e-35
1.9783	1.30321e-35
1.9966	1.1293632359999998e-35
2.0151	9.78751225e-36
2.0338	8.483238759999999e-36
2.0526	7.35331689e-36
2.0716	6.374615039999999e-36
2.0908	5.5267308099999994e-36
2.1102	4.7921588100000004e-36
2.1297	4.1554822499999996e-36
2.1495	3.603542890000001e-36
2.1694	3.1254704100000004e-36
2.1895	2.7109622500000003e-36
2.2098	2.35162225e-36
2.2302	2.0400408900000005e-36
2.2509	1.7699641600000003e-36
2.2717	1.53586449e-36
2.2928	1.3326393599999999e-36
2.314	1.15670025e-36
2.3354	1.00380361e-36
2.3571	8.714222499999998e-37
2.3789	7.564998529e-37
2.4009	6.568129936e-37
2.4232	5.703119361e-37
2.4456	4.952499875999999e-37
2.4683	4.3012610560000005e-37
2.4911	3.7360211290000007e-37
2.5142	3.2453530239999997e-37
2.5375	2.8193976039999996e-37
2.561	2.449755025e-37
2.5847	2.1287150440000004e-37
2.6087	1.8499461210000006e-37
2.6328	1.6079298010000003e-37
2.6572	1.3977129959999999e-37
2.6818	1.215080164e-37
2.7067	1.0565100160000001e-37
2.7317	9.186961e-38
2.757	7.989667559999999e-38
2.7826	6.949023210000001e-38
2.8083	6.045205689999999e-38
2.8343	5.25922489e-38
2.8606	4.57574881e-38
2.8871	3.982020249999999e-38
2.9138	3.46555456e-38
2.9408	3.01647424e-38
2.9681	2.62602025e-38
2.9955	2.2864464099999998e-38
3.0233	1.9909209999999998e-38
3.0513	1.7339622399999994e-38
3.0796	1.51019521e-38
3.1081	1.315609e-38
3.1369	1.1461843599999997e-38
3.1659	9.988403364e-39
3.1952	8.70489e-39
3.2248	7.587281024999998e-39
3.2547	6.614243583999999e-39
3.2849	5.7668836e-39
3.3153	5.0287953960000015e-39
3.346	4.3858830760000004e-39
3.377	3.8256699040000006e-39
3.4083	3.337603984e-39
3.4398	2.9122212250000007e-39
3.4717	2.5415713960000002e-39
3.5038	2.218315801e-39
3.5363	1.936616049e-39
3.569	1.690936641e-39
3.6021	1.4766343289999998e-39
3.6355	1.2898153959999998e-39
3.6691	1.126743489e-39
3.7031	9.845161289999999e-40
3.7374	8.604248889999999e-40
3.772	7.521306250000001e-40
3.807	6.5756344899999995e-40
3.8422	5.749924410000001e-40
3.8778	5.02925476e-40
3.9137	4.39992576e-40
3.95	3.850228839999999e-40
3.9866	3.36979449e-40
4.0235	2.95014976e-40
4.0608	2.5834132899999997e-40
4.0984	2.2629184900000005e-40
4.1363	1.98274561e-40
4.1747	1.7376512399999998e-40
4.2133	1.52324964e-40
4.2523	1.33587364e-40
4.2917	1.1718062499999999e-40
4.3315	1.02839881e-40
4.3716	9.0269001e-41
4.4121	7.927053156e-41
4.453	6.964069401000001e-41
4.4942	6.120558755999999e-41
4.5358	5.381542881e-41
4.5778	4.733990416000001e-41
4.6202	4.166444304000001e-41
4.663	3.6687248999999994e-41
4.7062	3.2322636089999997e-41
4.7498	2.849317641e-41
4.7938	2.513317689e-41
4.8382	2.2183158009999998e-41
4.883	1.959213169e-41
4.9282	1.731724996e-41
4.9739	1.5317047689999998e-41
5.02	1.3559333290000003e-41
5.0665	1.2013849210000001e-41
5.1134	1.0653043210000003e-41
5.1607	9.455625000000001e-42
5.2085	8.401302250000001e-42
5.2568	7.47202225e-42
5.3055	6.65330436e-42
5.3546	5.930686090000001e-42
5.4042	5.2927603600000004e-42
5.4543	4.7297550400000013e-42
5.5048	4.23207184e-42
5.5558	3.7919772899999995e-42
5.6072	3.402549159999999e-42
5.6592	3.05725225e-42
5.7116	2.75161744e-42
5.7645	2.4803100100000007e-42
5.8179	2.2392129600000003e-42
5.8718	2.02521361e-42
5.9262	1.8346702499999998e-42
5.981	1.66513216e-42
6.0364	1.5136380899999995e-42
6.0923	1.37874564e-42
6.1488	1.2579865599999997e-42
6.2057	1.1500417600000004e-42
6.2632	1.0532916900000002e-42
6.3212	9.663479808999998e-43
6.3798	8.883251001000003e-43
6.4389	8.181202500000001e-43
6.4985	7.548481924000001e-43
6.5587	6.977427960999999e-43
6.6194	6.461265924000001e-43
6.6807	5.9938564e-43
6.7426	5.569935424000001e-43
6.8051	5.1848640359999985e-43
6.8681	4.8344208999999986e-43
6.9317	4.514899248999998e-43
6.9959	4.2231801959999996e-43
7.0607	3.95641e-43
7.1261	3.711855625e-43
7.1921	3.4874930249999992e-43
7.2587	3.2811129609999995e-43
7.326	3.091137604000001e-43
7.3938	2.9158920010000002e-43
7.4623	2.753940484e-43
7.5314	2.6040609000000005e-43
7.6012	2.4651225000000003e-43
7.6716	2.336272225e-43
7.7426	2.2164322410000004e-43
7.8144	2.1048826410000004e-43
7.8867	2.0009518239999997e-43
7.9598	1.904013225e-43
8.0335	1.7703056250000002e-43
8.1079	1.6841174439999998e-43
8.183	1.6031215209999998e-43
8.2588	1.527090084e-43
8.3353	1.4556514089999999e-43
8.4125	1.388382121e-43
8.4904	1.325032801e-43
8.5691	1.2652248999999999e-43
8.6484	1.2088833610000003e-43
8.7285	1.155592036e-43
8.8094	1.105363009e-43
8.891	1.057745529e-43
8.9733	1.0128306250000002e-43
9.0564	9.70260201e-44
9.1403	9.299450249999998e-44
9.225	8.918584959999999e-44
9.3104	8.55738009e-44
9.3966	8.21567569e-44
9.4837	7.892728360000002e-44
9.5715	7.587270249999999e-44
9.6602	7.29864256e-44
9.7496	7.026210489999999e-44
9.84	6.769883609999999e-44
9.9311	6.528536009999998e-44
10.023	6.303112360000001e-44
10.116	6.056520999999998e-44
10.21	5.81967376e-44
10.304	5.59417104e-44
10.4	5.374978560000002e-44
10.496	5.166074409999999e-44
10.593	4.964875240000002e-44
10.691	4.771603359999999e-44
10.79	4.58559396e-44
10.89	4.4066406399999987e-44
10.991	4.2345408400000003e-44
11.093	4.0690958399999997e-44
11.196	3.9101107599999997e-44
11.299	3.7585576900000003e-44
11.404	3.6115201599999997e-44
11.51	3.47039641e-44
11.616	3.335736959999999e-44
11.724	3.2051740900000004e-44
11.832	3.0810780899999997e-44
11.942	2.96046436e-44
12.053	2.84461956e-44
12.164	2.734392960000001e-44
12.277	2.6273168100000003e-44
12.391	2.52460321e-44
12.505	2.42674084e-44
12.621	2.332034410000001e-44
12.738	2.2410089999999993e-44
12.856	2.15355625e-44
12.975	2.06985769e-44
13.095	1.98922816e-44
13.217	1.9110297600000003e-44
13.339	1.8368380900000003e-44
13.463	1.7649122499999997e-44
13.587	1.6965062499999997e-44
13.713	1.63021824e-44
13.84	1.5667528900000004e-44
13.968	1.5057744099999994e-44
14.098	1.44672784e-44
14.228	1.39051264e-44
14.36	1.3363360000000002e-44
14.493	1.28414224e-44
14.627	1.2340988100000002e-44
14.763	1.185921e-44
14.9	1.1395562499999996e-44
15.038	1.0951622500000001e-44
15.177	1.0524708099999999e-44
15.317	1.0116336399999999e-44
15.459	9.721762801000003e-45
15.602	9.3431556e-45
15.747	8.9775625e-45
15.893	8.627251689000001e-45
16.04	8.291195136e-45
16.189	7.966990563999999e-45
16.339	7.65625e-45
16.49	7.358379961e-45
16.643	7.070959921000001e-45
16.797	6.795529225000001e-45
16.952	6.531549123999999e-45
17.109	6.276917529e-45
17.268	6.031386244e-45
17.428	5.796081424e-45
17.589	5.570681769e-45
17.752	5.353263556e-45
17.917	5.143901841e-45
18.082	4.9444804889999995e-45
18.25	4.751069184000001e-45
18.419	4.5658400409999994e-45
18.59	4.3874726439999993e-45
18.762	4.2165542250000003e-45
18.936	4.0519590249999993e-45
19.111	3.894259216e-45
19.288	3.742380625000001e-45
19.467	3.596161024000001e-45
19.647	3.4562641e-45
19.829	3.321447424000001e-45
20.012	3.170816100000001e-45
20.198	3.0421843359999994e-45
20.385	2.9196731559999995e-45
20.574	2.8029612489999996e-45
20.764	2.691638161e-45
20.957	2.5856208009999994e-45
21.151	2.4844243360000003e-45
21.347	2.387983689e-45
21.544	2.2959430559999994e-45
21.744	2.2082480639999993e-45
21.945	2.1245646490000005e-45
22.149	2.0446675240000003e-45
22.354	1.968519424e-45
22.561	1.8959057640000005e-45
22.77	1.826622121e-45
22.981	1.760557681e-45
23.193	1.6976872090000002e-45
23.408	1.6377399609999997e-45
23.625	1.580698564e-45
23.844	1.526386761e-45
24.065	1.474790409e-45
24.288	1.4257420809999998e-45
24.513	1.3793053210000006e-45
24.74	1.335244681e-45
24.969	1.2936970240000003e-45
25.2	1.2545055609999997e-45
25.433	1.1999296000000003e-45
25.669	1.1475833760000002e-45
25.907	1.0975306409999999e-45
26.147	1.0497599999999999e-45
26.389	1.0040659690000002e-45
26.633	9.603800999999998e-46
26.88	9.18514249e-46
27.129	8.785296e-46
27.38	8.40304144e-46
27.634	8.036091040000001e-46
27.89	7.68620176e-46
28.148	7.35168996e-46
28.409	7.031512889999998e-46
28.672	6.72520489e-46
28.938	6.431803210000001e-46
29.206	6.151888090000002e-46
29.476	5.884020490000001e-46
29.749	5.62780729e-46
30.025	5.3824e-46
30.303	5.147907209999999e-46
30.583	4.9244048099999995e-46
30.867	4.70933401e-46
31.153	4.50415729e-46
31.441	4.308530490000001e-46
31.732	4.1209000000000005e-46
32.026	3.941416090000001e-46
32.323	3.76942225e-46
32.622	3.605441440000001e-46
32.924	3.4484489999999995e-46
33.229	3.2982192100000007e-46
33.537	3.15453121e-46
33.848	3.01682161e-46
34.161	2.8859214399999995e-46
34.478	2.7599176899999995e-46
34.797	2.63965009e-46
35.119	2.524921e-46
35.445	2.4146052099999994e-46
35.773	2.3094880900000002e-46
36.104	2.2090876899999996e-46
36.439	2.1126622500000005e-46
36.776	2.0209465599999998e-46
37.117	1.9326560399999997e-46
37.461	1.8485121600000005e-46
37.807	1.7681020900000003e-46
38.158	1.6910401599999998e-46
38.511	1.61747524e-46
38.868	1.5470384400000003e-46
39.228	1.47962896e-46
39.591	1.4151481600000004e-46
39.958	1.3534995600000003e-46
40.328	1.31423296e-46
40.701	1.27577025e-46
41.078	1.23854641e-46
41.459	1.20253156e-46
41.843	1.1674802499999999e-46
42.23	1.1337990399999998e-46
42.622	1.10082064e-46
43.016	1.06894921e-46
43.415	1.03815721e-46
43.817	1.00841764e-46
44.223	9.796644484000002e-47
44.632	9.517368248999999e-47
45.046	9.247514896e-47
45.463	8.986660803999998e-47
45.884	8.735706225e-47
46.309	8.492728336000003e-47
46.738	8.257902129000002e-47
47.171	8.031565161e-47
47.608	7.812968880999999e-47
48.049	7.601572968999999e-47
48.494	7.397892121000001e-47
48.943	7.201219600000001e-47
49.396	7.011382756e-47
49.854	6.828377956000003e-47
50.315	6.651544248999999e-47
50.782	6.481055024999999e-47
51.252	6.316593529000002e-47
51.727	6.158011728999998e-47
52.206	6.005010064000001e-47
52.689	5.857453156e-47
53.177	5.714906409e-47
53.67	5.577699855999998e-47
54.167	5.445406848999999e-47
54.669	5.317618084000001e-47
55.175	5.194373183999999e-47
55.686	5.075565049e-47
56.202	4.960948356e-47
56.722	4.850565316e-47
57.248	4.744041129000001e-47
57.778	4.641151876e-47
58.313	4.542086025000001e-47
58.853	4.446489124e-47
59.398	4.3542841689999997e-47
59.948	4.2653961e-47
60.504	4.1796225e-47
61.064	4.0968960489999996e-47
61.63	4.017151161000001e-47
62.2	3.940323984e-47
62.777	3.866103684e-47
63.358	3.7944368010000006e-47
63.945	3.725393296000001e-47
64.537	3.658677169000001e-47
65.135	3.594482115999999e-47
65.738	3.532519225e-47
66.347	3.472627041e-47
66.962	3.414999843999999e-47
67.582	3.359245680999999e-47
68.208	3.305560036e-47
68.84	3.2537897640000003e-47
69.477	3.2037864040000004e-47
70.121	3.155518276e-47
70.77	3.108954564e-47
71.426	3.0640653159999997e-47
72.087	3.0207115210000005e-47
72.755	2.978867241e-47
73.429	2.9385072640000003e-47
74.109	2.899499409e-47
74.795	2.8618220159999996e-47
75.488	2.825560335999999e-47
76.187	2.7903749759999997e-47
76.893	2.756670016e-47
77.605	2.723900481e-47
78.324	2.6924683210000006e-47
79.049	2.662044025000001e-47
79.781	2.6326134809999993e-47
80.52	2.604367089e-47
81.266	2.5768821689999996e-47
82.019	2.550553009e-47
82.779	2.5249620009999993e-47
83.545	2.5003000090000007e-47
84.319	2.4766547560000003e-47
85.1	2.4536171560000006e-47
85.888	2.4314761000000007e-47
86.684	2.410122649e-47
87.487	2.389449924e-47
88.297	2.369547684e-47
89.115	2.3504073609999993e-47
89.94	2.331827521e-47
90.773	2.313898609e-47
91.614	2.2966139289999996e-47
92.463	2.279967001e-47
93.319	2.2638564e-47
94.183	2.248466723999999e-47
95.056	2.2335076e-47
95.936	2.219069449e-47
96.825	2.2052416e-47
97.721	2.1918314890000004e-47
98.627	2.1789290410000004e-47
99.54	2.166623209e-47
100.46	2.1716532010000006e-47
101.39	2.1588103690000002e-47
102.33	2.1463762410000005e-47
103.28	2.13444e-47
104.24	2.122905625e-47
105.2	2.1117701159999998e-47
106.18	2.1010305690000003e-47
107.16	2.090684176e-47
108.15	2.0807282249999999e-47
109.15	2.0712511209999998e-47
110.16	2.061977281e-47
111.18	2.0530867209999998e-47
112.21	2.044577089e-47
113.25	2.0363558759999995e-47
114.3	2.028511521e-47
115.36	2.0209520250000003e-47
116.43	2.013675876e-47
117.51	2.006771209e-47
118.6	2.000057284e-47
119.7	1.9937118009999999e-47
120.8	1.9875547239999996e-47
121.92	1.981763289e-47
123.05	1.976247025e-47
124.19	1.9710048160000003e-47
125.34	1.9659469210000006e-47
126.5	1.9612497960000005e-47
127.68	1.9567352249999998e-47
128.86	1.9525793439999997e-47
130.05	1.9486044490000002e-47
131.26	1.9448100000000003e-47
132.47	1.9413717210000007e-47
133.7	1.9382006249999998e-47
134.94	1.9352080810000002e-47
136.19	1.9325695209999999e-47
137.45	1.9301963559999991e-47
138.72	1.928000281e-47
140.01	1.9260687690000002e-47
141.3	1.9245768999999994e-47
142.61	1.9232610250000003e-47
143.93	1.922208649e-47
145.27	1.9215072249999992e-47
146.61	1.9212442240000007e-47
147.97	1.9212442240000007e-47
149.34	1.9216825690000001e-47
150.72	1.9225594089999997e-47
152.12	1.923875044e-47
153.53	1.9258054559999997e-47
154.95	1.9283515690000004e-47
156.38	1.9317783040000001e-47
157.83	1.9360880009999997e-47
159.3	1.9411073640000003e-47
160.77	1.9481630440000002e-47
162.26	1.9440162809999993e-47
163.76	1.9399620249999994e-47
165.28	1.935824004e-47
166.81	1.9317783040000001e-47
168.36	1.9276490250000003e-47
169.91	1.923611881e-47
171.49	1.9195789690000002e-47
173.08	1.9155502889999997e-47
174.68	1.9115258409999998e-47
176.3	1.9074182759999995e-47
177.93	1.9034023839999999e-47
179.58	1.8993907239999999e-47
181.24	1.8953832960000002e-47
182.92	1.891467081e-47
184.61	1.8874680250000002e-47
186.32	1.8834732010000005e-47
188.05	1.8794826090000005e-47
189.79	1.875582864e-47
191.55	1.8716006440000002e-47
193.32	1.8676226560000003e-47
195.11	1.8637352409999996e-47
196.92	1.8597656249999996e-47
198.75	1.8558864000000003e-47
200.59	1.8624403359999999e-47
202.44	1.8686599839999998e-47
204.32	1.8748034010000002e-47
206.21	1.8807834240000001e-47
208.12	1.8867729690000004e-47
210.05	1.8927720359999996e-47
212.0	1.8986063290000003e-47
213.96	1.9045368809999993e-47
215.94	1.9104766809999995e-47
217.94	1.9165132839999995e-47
219.96	1.922647104e-47
222.0	1.928790724e-47
224.05	1.9351200999999998e-47
226.13	1.9415479689999997e-47
228.22	1.9480747690000004e-47
230.34	1.9547009439999995e-47
232.47	1.961426944e-47
234.62	1.9683419560000005e-47
236.8	1.9755358090000002e-47
238.99	1.982653729e-47
241.2	1.9901413210000005e-47
243.44	1.9977324159999999e-47
245.69	2.0054275240000003e-47
247.97	2.013406641e-47
250.26	2.0214915210000002e-47
252.58	2.0297728089999998e-47
254.92	2.038341904e-47
257.28	2.0469290490000003e-47
259.67	2.055896964e-47
262.07	2.0649753639999998e-47
264.5	2.0743470250000002e-47
266.95	2.083831201e-47
269.42	2.0935200250000002e-47
271.92	2.1035064960000002e-47
274.43	2.1137925760000001e-47
276.98	2.1241959210000006e-47
279.54	2.1349020249999994e-47
282.13	2.145820329e-47
284.74	2.156952249e-47
287.38	2.1683923559999999e-47
290.04	2.1801428639999996e-47
292.73	2.192018761e-47
295.44	2.2043024999999996e-47
298.18	2.2168088890000007e-47
300.94	2.2353984e-47
303.73	2.248182225000001e-47
306.54	2.2613829159999997e-47
309.38	2.274813025e-47
312.24	2.288569921e-47
315.14	2.3026561960000003e-47
318.06	2.316978225e-47
321.0	2.3317309440000003e-47
323.97	2.346821136e-47
326.97	2.362251608999999e-47
330.0	2.378122756e-47
333.06	2.394242761e-47
336.14	2.4108100000000005e-47
339.26	2.427729984e-47
342.4	2.445104704e-47
345.57	2.462839129e-47
348.77	2.4810361e-47
352.0	2.4997000089999997e-47
355.26	2.5189357210000007e-47
358.55	2.5386482249999995e-47
361.87	2.5588422250000007e-47
365.23	2.579827264e-47
368.61	2.601408016e-47
372.02	2.624000625e-47
375.47	2.647514116000001e-47
378.95	2.672476416e-47
382.46	2.6994259359999996e-47
386.0	2.7291220809999995e-47
389.57	2.763604899999999e-47
393.18	2.806774441e-47
396.82	2.8691020959999998e-47
400.5	2.9838906250000004e-47
404.21	3.0092904489999995e-47
407.95	3.034908100000001e-47
411.73	3.060744976e-47
415.55	3.0869136000000004e-47
419.39	3.113082025e-47
423.28	3.0399784960000004e-47
427.2	3.027860676e-47
431.16	3.036561025e-47
435.15	3.054330756e-47
439.18	3.0769209e-47
443.25	3.1023786009999993e-47
447.35	3.129843025e-47
451.5	3.158777209e-47
455.68	3.1889738410000005e-47
459.9	3.2201085159999994e-47
464.16	3.2521927839999996e-47
468.46	3.285009224999999e-47
472.8	3.3187968810000003e-47
477.18	3.3532206490000003e-47
481.6	3.3885205210000003e-47
486.06	3.4245904000000005e-47
490.56	3.4614395560000005e-47
495.1	3.498959103999999e-47
499.69	3.537275624999999e-47
504.32	3.576398809e-47
508.99	3.616218225e-47
513.7	3.656983729e-47
518.46	3.698464225000001e-47
523.26	3.7407902440000005e-47
528.11	3.783849169e-47
533.0	3.8278969e-47
537.94	3.8726973609999996e-47
542.92	3.918384409e-47
547.95	3.9649690239999995e-47
553.02	4.0124623360000003e-47
558.14	4.0610030759999995e-47
563.31	4.110348544e-47
568.53	4.1606370090000006e-47
573.8	4.2118802009999987e-47
579.11	4.264090000000001e-47
584.48	4.3174098490000005e-47
589.89	4.371722161e-47
595.35	4.427039295999999e-47
600.87	4.483373763999999e-47
606.43	4.540872996e-47
612.05	4.599416761000002e-47
617.72	4.659154564000001e-47
623.44	4.719964804e-47
629.21	4.781999104e-47
635.04	4.845134448999999e-47
640.92	4.909524624e-47
646.86	4.975186225e-47
652.85	5.042136063999999e-47
658.9	5.110248195999999e-47
665.0	5.179824841000001e-47
671.16	5.250886368999999e-47
677.38	5.3231616e-47
683.65	5.397106225e-47
689.98	5.472744483999999e-47
696.37	5.55025e-47
702.82	5.630251224999999e-47
709.33	5.713848100000001e-47
715.9	5.805525636e-47
722.53	5.928076035999999e-47
729.23	6.001755840999999e-47
735.98	6.076358400999998e-47
742.8	6.151735489e-47
749.68	6.228208560999998e-47
756.62	6.308489476000001e-47
763.63	6.396160576e-47
770.7	6.487658116000002e-47
777.84	6.581914640999999e-47
785.05	6.678158400000001e-47
792.32	6.776747041000003e-47
799.66	6.877053184e-47
807.06	6.979599935999998e-47
814.54	7.083915556000001e-47
822.08	7.190361616000001e-47
829.7	7.298968356e-47
837.38	7.409422084e-47
845.14	7.522092899999999e-47
852.96	7.636837321e-47
860.86	7.753683025000002e-47
868.84	7.872835441000001e-47
876.89	7.994148100000001e-47
885.01	8.117829801000001e-47
893.2	8.243732025000001e-47
901.48	8.372067001000001e-47
909.83	8.502868521000002e-47
918.25	8.635984899999999e-47
926.76	8.771633649000001e-47
