f	psd[1/Hz]
1.0	1.1373611068275079e-37
1.4999499949994999	8.696208966917246e-38
1.9998999899989998	6.570122892098656e-38
2.4998499849985	4.899811911450011e-38
2.9997999799979995	3.6028313598252e-38
3.4997499749974996	2.608567084828938e-38
3.9996999699969997	1.85703458562226e-38
4.499649964996499	1.2977430450051528e-38
4.999599959995999	8.886242547769904e-39
5.4995499549955	5.950264343743389e-39
5.999499949994999	3.8877294278637166e-39
6.499449944994499	2.4728588374770504e-39
6.9993999399939995	1.5277460420884065e-39
7.499349934993499	9.14890860840768e-40
7.999299929992999	5.3038231276951995e-40
8.4992499249925	2.9773039983207207e-40
8.999199919991998	1.6234682271264243e-40
9.499149914991499	8.667462940222485e-41
9.999099909991	4.596679655374619e-41
10.499049904990498	2.471374361239882e-41
10.998999899989998	1.3719779721158227e-41
11.498949894989499	7.828483401481939e-42
11.998899889988998	4.395145308689368e-42
12.498849884988498	2.5196030917876615e-42
12.998799879987999	1.591040190209633e-42
13.498749874987498	1.0576709252490506e-42
13.998699869986998	6.7739399348651974e-43
14.498649864986499	3.7326074519412226e-43
14.998599859985998	2.067394448434078e-43
15.498549854985498	1.313021367166871e-43
15.998499849984999	8.597147293312165e-44
16.4984498449845	5.258795365092536e-44
16.998399839983996	3.070534965153843e-44
17.498349834983497	1.776140147572329e-44
17.998299829982997	1.0359565817343592e-44
18.498249824982498	6.223452837299817e-45
18.998199819982	3.9424838970493576e-45
19.4981498149815	2.6755692684088327e-45
19.998099809980996	1.9433213037439225e-45
20.498049804980496	1.4650715101091808e-45
20.997999799979997	1.1021776521896951e-45
21.497949794979498	8.313305966633705e-46
21.997899789978998	6.405458423955274e-46
22.4978497849785	5.141270257167908e-46
22.997799779977996	4.296581504374804e-46
23.497749774977496	3.6959830016599936e-46
23.997699769976997	3.217814470673059e-46
24.497649764976497	2.8192096030965166e-46
24.997599759975998	2.4879570896568436e-46
25.4975497549755	2.21371077193105e-46
25.997499749974995	1.9876380055400166e-46
26.497449744974496	1.8022299614837604e-46
26.997399739973996	1.6509795449012461e-46
27.497349734973497	1.5279862908800792e-46
27.997299729972998	1.4281790396773979e-46
28.497249724972498	1.3472235885269704e-46
28.997199719971995	1.2813718425331855e-46
29.497149714971496	1.2273328457499092e-46
29.997099709970996	1.1821656924442208e-46
30.497049704970497	1.1431943185450047e-46
30.996999699969997	1.1079441732764147e-46
31.496949694969498	1.0741007709762109e-46
31.996899689968995	1.0396962867589958e-46
32.496849684968495	1.0044119134211602e-46
32.99679967996799	9.68636346302474e-47
33.496749674967496	9.327409558209316e-47
33.99669966996699	8.970746584064202e-47
34.4966496649665	8.619628946866956e-47
34.996599659965995	8.277071261790614e-47
35.4965496549655	7.945848504877339e-47
35.996499649964996	7.628501350069099e-47
36.49644964496449	7.32734669129522e-47
36.996399639964	7.044493349616961e-47
37.496349634963494	6.781680211185594e-47
37.996299629963	6.53848174939013e-47
38.496249624962495	6.31324409128194e-47
38.99619961996199	6.104399426485403e-47
39.496149614961496	5.910477520581536e-47
39.99609960996099	5.730097340087689e-47
40.4960496049605	5.561959269502361e-47
40.995999599959994	5.404837920415232e-47
41.4959495949595	5.2575755326822e-47
41.995899589958995	5.1190759676656615e-47
42.49584958495849	4.988299293539856e-47
42.995799579957996	4.864256962661371e-47
43.49574957495749	4.746007581004778e-47
43.995699569957	4.632678981894999e-47
44.495649564956494	4.523816781720713e-47
44.99559955995599	4.419272888078047e-47
45.495549554955495	4.318911332912857e-47
45.99549954995499	4.2226005653740915e-47
46.495449544954496	4.1302133519770224e-47
46.99539953995399	4.0416266777584385e-47
47.4953495349535	3.9567216484238316e-47
47.995299529952995	3.8753833934865615e-47
48.49524952495249	3.797500970398981e-47
48.995199519951996	3.7229672696755664e-47
49.49514951495149	3.6516789210080017e-47
49.995099509951	3.583536200372261e-47
50.495049504950494	3.51844293812766e-47
50.99499949994999	3.456306428107881e-47
51.494949494949495	3.3970372602779236e-47
51.99489948994899	3.3405373554046626e-47
52.494849484948496	3.2866876064302084e-47
52.99479947994799	3.235370098805139e-47
53.49474947494749	3.186471037743311e-47
53.994699469946994	3.13988054217957e-47
54.49464946494649	3.095492445183954e-47
54.994599459945995	3.0532041008323564e-47
55.49454945494549	3.0129161975336806e-47
55.994499449944996	2.974532577813476e-47
56.49444944494449	2.937960064554033e-47
56.99439943994399	2.9031082936909774e-47
57.494349434943494	2.869889553366339e-47
57.99429942994299	2.838218629538088e-47
58.494249424942495	2.808012658046155e-47
58.99419941994199	2.77919098313494e-47
59.49414941494149	2.751675022432292e-47
59.99409940994099	2.7253881383849465e-47
60.49404940494049	2.700255516150494e-47
60.993999399939995	2.676204047945759e-47
61.49394939493949	2.6531622408285433e-47
61.993899389938996	2.631065406218785e-47
62.49384938493849	2.609862949142619e-47
62.99379937993799	2.5895071902146173e-47
63.493749374937494	2.569951392000776e-47
63.99369936993699	2.5511497046814366e-47
64.49364936493649	2.53305711449147e-47
64.99359935993598	2.5156293949376943e-47
65.4935493549355	2.498823060793544e-47
65.99349934993499	2.482595324870963e-47
66.49344934493449	2.4669040575695574e-47
66.99339933993399	2.4517077492029814e-47
67.4933493349335	2.436965475102567e-47
67.993299329933	2.422636863498191e-47
68.49324932493249	2.4086820661763984e-47
68.99319931993199	2.3950617319157495e-47
69.49314931493149	2.3817369826994197e-47
69.993099309931	2.368669392705039e-47
70.4930493049305	2.355820970071774e-47
70.99299929992999	2.343154141444649e-47
71.49294929492949	2.330631739296118e-47
71.99289928992899	2.3182169920248554e-47
72.4928492849285	2.305873516831827e-47
72.992799279928	2.293565315373565e-47
73.49274927492749	2.2812567721927057e-47
73.99269926992699	2.268912655925768e-47
74.49264926492648	2.256498123288163e-47
74.992599259926	2.2439787258364575e-47
75.49254925492549	2.231320419507877e-47
75.99249924992499	2.218489997334461e-47
76.49244924492449	2.205474464728576e-47
76.99239923992398	2.1922888763114666e-47
77.4923492349235	2.1789502559181563e-47
77.99229922992299	2.1654754691361005e-47
78.49224922492249	2.151881216875421e-47
78.99219921992199	2.1381840294656436e-47
79.4921492149215	2.1244002612788922e-47
79.992099209921	2.1105460858795703e-47
80.49204920492049	2.0966374917005108e-47
80.99199919991999	2.0826902782456096e-47
81.49194919491948	2.0687200528189258e-47
81.991899189919	2.054742227780272e-47
82.4918491849185	2.040772018327265e-47
82.99179917991799	2.02682444080386e-47
83.49174917491749	2.012914311535369e-47
83.99169916991698	1.9990562461899427e-47
84.4916491649165	1.9852646596665248e-47
84.99159915991599	1.9715537665093084e-47
85.49154915491549	1.957937581848637e-47
85.99149914991499	1.9444299228683987e-47
86.49144914491448	1.931044410799901e-47
86.991399139914	1.9177944734422027e-47
87.49134913491349	1.9046933482089444e-47
87.99129912991299	1.8917540857016364e-47
88.49124912491249	1.8789895538094377e-47
88.99119911991198	1.866412442335396e-47
89.4911491149115	1.8540352681491793e-47
89.99109910991099	1.841870380866272e-47
90.49104910491049	1.829929969053658e-47
90.99099909990998	1.818226066961963e-47
91.49094909490948	1.8067705617840914e-47
91.99089908990899	1.7955752014403312e-47
92.49084908490849	1.7846516028899337e-47
92.99079907990799	1.7740112609691665e-47
93.49074907490748	1.763665557755857e-47
93.990699069907	1.7536257724603931e-47
94.49064906490649	1.7439030918432143e-47
94.99059905990599	1.7345086211587738e-47
95.49054905490549	1.7254518558456674e-47
95.99049904990498	1.716729017262782e-47
96.4904490449045	1.7083296855564696e-47
96.99039903990399	1.7002435473484766e-47
97.49034903490349	1.6924604430970557e-47
97.99029902990299	1.6849703602292097e-47
98.49024902490248	1.6777634264655562e-47
98.990199019902	1.6708299033378111e-47
99.49014901490149	1.6641601798988774e-47
99.99009900990099	1.6577447666255626e-47
100.49004900490048	1.6515742895139035e-47
100.98999899989998	1.6456394843671154e-47
101.48994899489949	1.6399311912761502e-47
101.98989898989899	1.6344403492928735e-47
102.48984898489849	1.629157991295863e-47
102.98979897989798	1.6240752390488166e-47
103.48974897489748	1.6191832984515758e-47
103.98969896989699	1.6144734549837777e-47
104.48964896489649	1.6099370693411082e-47
104.98959895989599	1.6055655732641785e-47
105.48954895489548	1.60135046556002e-47
105.98949894989498	1.5972833083161946e-47
106.48944894489449	1.593355723307515e-47
106.98939893989399	1.5895593885953928e-47
107.48934893489348	1.5858860353197917e-47
107.98929892989298	1.582327444683805e-47
108.4892489248925	1.5788754451308452e-47
108.98919891989199	1.5755219097144553e-47
109.48914891489149	1.5722587536607255e-47
109.98909890989098	1.5690779321233403e-47
110.48904890489048	1.5659714381312312e-47
110.98899889988999	1.5629313007288542e-47
111.48894889488949	1.5599495833090732e-47
111.98889888988899	1.5570183821386694e-47
112.48884888488848	1.5541298250764667e-47
112.98879887988798	1.5512760704840627e-47
113.48874887488749	1.5484493063291917e-47
113.98869886988699	1.5456417494816925e-47
114.48864886488649	1.5428456452020953e-47
114.98859885988598	1.5400532668228292e-47
115.48854885488548	1.5372569156220408e-47
115.98849884988499	1.534448920890032e-47
116.48844884488449	1.5316216401883133e-47
116.98839883988398	1.5287674598012771e-47
117.48834883488348	1.525878795380477e-47
117.98829882988298	1.5229480927815362e-47
118.48824882488249	1.5199678290936676e-47
118.98819881988199	1.5169305138618049e-47
119.48814881488148	1.5138286905013574e-47
119.98809880988098	1.510654937905579e-47
120.48804880488048	1.5074018722455523e-47
120.98799879987999	1.504062148962788e-47
121.48794879487949	1.5006285861147448e-47
121.98789878987898	1.4970986414491876e-47
122.48784878487848	1.4934756981158322e-47
122.98779877987799	1.4897635220649024e-47
123.48774877487749	1.4859658712933657e-47
123.98769876987699	1.4820864947921824e-47
124.48764876487648	1.4781291315326405e-47
124.98759875987598	1.4740975094917838e-47
125.48754875487549	1.4699953447169188e-47
125.98749874987499	1.4658263404292186e-47
126.48744874487448	1.4615941861664031e-47
126.98739873987398	1.4573025569645192e-47
127.48734873487348	1.4529551125787936e-47
127.98729872987299	1.4485554967435832e-47
128.48724872487247	1.4441073364714176e-47
128.98719871987197	1.439614241391106e-47
129.4871487148715	1.435079803124963e-47
129.987098709871	1.4305075947050937e-47
130.4870487048705	1.4259011700287833e-47
130.98699869986999	1.421264063352967e-47
131.48694869486948	1.4165997888277872e-47
131.98689868986898	1.4119118400692437e-47
132.48684868486848	1.4072036897709203e-47
132.98679867986797	1.4024787893548107e-47
133.48674867486747	1.397740568661222e-47
133.986698669867	1.3929924356777722e-47
134.4866486648665	1.3882377763074734e-47
134.986598659866	1.3834799541758957e-47
135.4865486548655	1.378722310477429e-47
135.98649864986498	1.3739681638606252e-47
136.48644864486448	1.3692208103526277e-47
136.98639863986398	1.3644835233226936e-47
137.48634863486348	1.359759553484794e-47
137.98629862986297	1.3550521289393135e-47
138.48624862486247	1.3503644552538242e-47
138.986198619862	1.3456997155829545e-47
139.4861486148615	1.3410610708273467e-47
139.986098609861	1.336451659831698e-47
140.48604860486049	1.3318745996218845e-47
140.98599859985998	1.327332985681187e-47
141.48594859485948	1.3228298922655847e-47
141.98589858985898	1.3183683727581527e-47
142.48584858485847	1.3139514600625394e-47
142.98579857985797	1.3095821670355286e-47
143.4857485748575	1.3052634869586972e-47
143.985698569857	1.3009983940491484e-47
144.4856485648565	1.2967898440093473e-47
144.985598559856	1.2926407746160285e-47
145.48554855485548	1.2885541063481996e-47
145.98549854985498	1.2845327430542339e-47
146.48544854485448	1.28057957265804e-47
146.98539853985397	1.276697467904331e-47
147.48534853485347	1.272889287142973e-47
147.98529852985297	1.2691578751524206e-47
148.4852485248525	1.2655060640022499e-47
148.985198519852	1.2619366739547621e-47
149.4851485148515	1.258452514405688e-47
149.98509850985099	1.2550562897151704e-47
150.48504850485048	1.251748661933058e-47
150.98499849984998	1.2485283456084635e-47
151.48494849484948	1.2453939898803374e-47
151.98489848984897	1.2423442571997085e-47
152.48484848484847	1.2393778229934504e-47
152.98479847984797	1.236493375332299e-47
153.4847484748475	1.2336896146031378e-47
153.984698469847	1.2309652531855384e-47
154.4846484648465	1.2283190151325653e-47
154.98459845984598	1.2257496358558415e-47
155.48454845484548	1.2232558618148673e-47
155.98449844984498	1.220836450210612e-47
156.48444844484447	1.2184901686833522e-47
156.98439843984397	1.216215795014787e-47
157.48434843484347	1.214012116834392e-47
157.984298429843	1.2118779313300568e-47
158.4842484248425	1.2098120449629675e-47
158.984198419842	1.2078132731867546e-47
159.48414841484148	1.205880440170902e-47
159.98409840984098	1.2040123785284168e-47
160.48404840484048	1.202207929047755e-47
160.98399839983998	1.200465940429018e-47
161.48394839483947	1.1987852690243938e-47
161.98389838983897	1.1971647785828754e-47
162.48384838483847	1.1956033399992286e-47
162.983798379838	1.1940998310672234e-47
163.4837483748375	1.1926531362371291e-47
163.983698369837	1.1912621463774648e-47
164.48364836483648	1.18992575854101e-47
164.98359835983598	1.1886428757350855e-47
165.48354835483548	1.187412406696082e-47
165.98349834983497	1.186233265668254e-47
166.48344834483447	1.1851043721867793e-47
166.98339833983397	1.1840246508650736e-47
167.48334833483347	1.1829930311863625e-47
167.983298329833	1.182008447299524e-47
168.4832483248325	1.181069837819183e-47
168.98319831983198	1.1801761456300686e-47
169.48314831483148	1.1793263176956305e-47
169.98309830983098	1.1785193048709235e-47
170.48304830483048	1.177754061719741e-47
170.98299829982997	1.1770295463360182e-47
171.48294829482947	1.1763447201694877e-47
171.98289828982897	1.175698547855606e-47
172.4828482848285	1.17508999704973e-47
172.982798279828	1.174518038265563e-47
173.4827482748275	1.1739816447178512e-47
173.98269826982698	1.1734797921693517e-47
174.48264826482648	1.1730114587820511e-47
174.98259825982598	1.172575624972653e-47
175.48254825482547	1.1721712732723187e-47
175.98249824982497	1.1717973881906757e-47
176.48244824482447	1.1714529560840796e-47
176.98239823982397	1.1711369650281372e-47
177.4823482348235	1.1708484046945037e-47
177.982298229823	1.1705862662319133e-47
178.48224822482248	1.170349542151499e-47
178.98219821982198	1.170137226216355e-47
179.48214821482148	1.1699483133353646e-47
179.98209820982098	1.1697817994612906e-47
180.48204820482047	1.169636681493121e-47
180.98199819981997	1.169511957182684e-47
181.48194819481947	1.1694066250455127e-47
181.98189818981896	1.1693196842759778e-47
182.4818481848185	1.1692501346666791e-47
182.98179817981799	1.169196976532096e-47
183.48174817481748	1.1691592106365013e-47
183.98169816981698	1.169135838126129e-47
184.48164816481648	1.169125860465614e-47
184.98159815981597	1.1691282793786811e-47
185.48154815481547	1.1691420967930994e-47
185.98149814981497	1.169166314789898e-47
186.48144814481446	1.1691999355568394e-47
186.981398139814	1.1692419613461575e-47
187.4813481348135	1.1692913944365514e-47
187.98129812981298	1.169347237099441e-47
188.48124812481248	1.169408491569488e-47
188.98119811981198	1.1694741600193686e-47
189.48114811481148	1.1695432445388137e-47
189.98109810981097	1.1696147471179075e-47
190.48104810481047	1.1696876696346462e-47
190.98099809980997	1.169761013846757e-47
191.48094809480946	1.1698337813877784e-47
191.980898089809	1.1699049737674005e-47
192.48084808480849	1.1699735923760643e-47
192.98079807980798	1.170038638493827e-47
193.48074807480748	1.1700991133034804e-47
193.98069806980698	1.170154017907933e-47
194.48064806480647	1.1702023533518562e-47
194.98059805980597	1.1702431206475853e-47
195.48054805480547	1.1702753208052823e-47
195.98049804980496	1.1702979548673627e-47
196.48044804480446	1.170310023947179e-47
196.980398039804	1.170310529271967e-47
197.48034803480348	1.1702985011784095e-47
197.98029802980298	1.1702735551029006e-47
198.48024802480248	1.1702358498806097e-47
198.98019801980197	1.170185565138479e-47
199.48014801480147	1.1701228806928645e-47
199.98009800980097	1.1700479765399876e-47
200.48004800480047	1.1699610328465152e-47
200.97999799979996	1.1698622299402794e-47
201.4799479947995	1.1697517483011391e-47
201.97989798979899	1.1696297685519687e-47
202.47984798479848	1.1694964714497905e-47
202.97979797979798	1.169352037877045e-47
203.47974797479748	1.169196648832991e-47
203.97969796979697	1.1690304854252491e-47
204.47964796479647	1.1688537288614847e-47
204.97959795979597	1.1686665604412143e-47
205.47954795479546	1.1684691615477656e-47
205.97949794979496	1.1682617136403635e-47
206.4794479447945	1.1680443982463579e-47
206.97939793979398	1.1678173969535835e-47
207.47934793479348	1.1675808914028637e-47
207.97929792979298	1.1673350632806446e-47
208.47924792479247	1.167080094311772e-47
208.97919791979197	1.1668161662523974e-47
209.47914791479147	1.1665434608830313e-47
209.97909790979097	1.1662621600017245e-47
210.47904790479046	1.165972445417389e-47
210.97899789978996	1.1656744989432604e-47
211.47894789478948	1.1653685023904873e-47
211.97889788978898	1.165054637561869e-47
212.47884788478848	1.1647330862457222e-47
212.97879787978798	1.1644040302098887e-47
213.47874787478747	1.1640676511958755e-47
213.97869786978697	1.1637241309131397e-47
214.47864786478647	1.1633736510334972e-47
214.97859785978596	1.1630163931856865e-47
215.47854785478546	1.1626525389500554e-47
215.978497849785	1.1622822698533833e-47
216.47844784478448	1.161905767363854e-47
216.97839783978398	1.161523212886153e-47
217.47834783478348	1.1611347877567078e-47
217.97829782978297	1.1607406732390585e-47
218.47824782478247	1.1603410505193783e-47
218.97819781978197	1.1599361007021157e-47
219.47814781478147	1.1595260048057839e-47
219.97809780978096	1.159110943758884e-47
220.47804780478046	1.1586910983959604e-47
220.97799779977998	1.1582666494538048e-47
221.47794779477948	1.157837777567785e-47
221.97789778977898	1.15740466326832e-47
222.47784778477848	1.1569674869774802e-47
222.97779777977797	1.1565264290057406e-47
223.47774777477747	1.1560816695488568e-47
223.97769776977697	1.1556333886848844e-47
224.47764776477646	1.1551817663713357e-47
224.97759775977596	1.1547269824424715e-47
225.47754775477546	1.1542692166067285e-47
225.97749774977498	1.1538086484442902e-47
226.47744774477448	1.1533454574047817e-47
226.97739773977398	1.1528798228051186e-47
227.47734773477347	1.15241192382748e-47
227.97729772977297	1.1519419395174178e-47
228.47724772477247	1.1514700487821167e-47
228.97719771977197	1.1509964303887738e-47
229.47714771477146	1.150521262963129e-47
229.97709770977096	1.1500447249881206e-47
230.47704770477048	1.1495669948026883e-47
230.97699769976998	1.1490882506007095e-47
231.47694769476948	1.1486086704300638e-47
231.97689768976898	1.148128432191852e-47
232.47684768476847	1.1476477136397365e-47
232.97679767976797	1.1471666923794246e-47
233.47674767476747	1.1466855458682895e-47
233.97669766976696	1.146204451415128e-47
234.47664766476646	1.1457235861800545e-47
234.97659765976596	1.1452431271745257e-47
235.47654765476548	1.1447632512615178e-47
235.97649764976498	1.1442841351558232e-47
236.47644764476448	1.1438059554244974e-47
236.97639763976397	1.1433288884874328e-47
237.47634763476347	1.1428531106180774e-47
237.97629762976297	1.1423787979442847e-47
238.47624762476246	1.141906126449306e-47
238.97619761976196	1.1414352719729112e-47
239.47614761476146	1.1409664102126586e-47
239.97609760976096	1.140499716725289e-47
240.47604760476048	1.1400353669282642e-47
240.97599759975998	1.139573536101443e-47
241.47594759475948	1.1391143993888897e-47
241.97589758975897	1.1386581318008209e-47
242.47584758475847	1.1382049082156933e-47
242.97579757975797	1.1377549033824206e-47
243.47574757475746	1.1373082919227368e-47
