f	psd[1/Hz]
10.0	2.223504464164e-42
10.023060000000001	2.1831259291402505e-42
10.046173	2.1434807607816102e-42
10.069339999999999	2.10455573225569e-42
10.09256	2.0663378255664402e-42
10.115833	2.0288142288602494e-42
10.139161	1.9919720514817596e-42
10.162542	1.955799453001e-42
10.185976	1.9202836620489996e-42
10.209465	1.8854129470915598e-42
10.233008	1.8511757594726395e-42
10.256606	1.81756046146249e-42
10.280258	1.78455560343076e-42
10.303964	1.75215018608161e-42
10.327725	1.7203336459020102e-42
10.351541000000001	1.6890945413128895e-42
10.375411999999999	1.65842317368484e-42
10.399337	1.6283087067039997e-42
10.423318	1.59874099321689e-42
10.447355	1.56971054958481e-42
10.471446	1.54120728924369e-42
10.495594	1.5132217851086395e-42
10.519796000000001	1.4857447572676904e-42
10.544055	1.4587668295536397e-42
10.56837	1.4322790174179604e-42
10.592741	1.4062724778049597e-42
10.617168	1.3807385073328898e-42
10.641651	1.35566854049124e-42
10.666191	1.33105414785424e-42
10.690787	1.3068868056722498e-42
10.71544	1.283158810756e-42
10.74015	1.25986167614736e-42
10.764917	1.23698772780025e-42
10.789741000000001	1.21452941083761e-42
10.814622	1.1924790696476103e-42
10.83956	1.1708291727619602e-42
10.864557000000001	1.1495725256334404e-42
10.889610000000001	1.1287020467352101e-42
10.914722	1.1082103450264899e-42
10.939891000000001	1.088090989456e-42
10.965119	1.0683370220952103e-42
10.990404	1.04894180469796e-42
11.015748	1.0298986018566401e-42
11.041151	1.01120139334201e-42
11.066612	9.928436095005442e-43
11.092131	9.748192848645967e-43
11.11771	9.571223492716898e-43
11.143347	9.397468877134849e-43
11.169044	9.226870787786401e-43
11.1948	9.059372124778756e-43
11.220614999999999	8.894917070385423e-43
11.24649	8.733450686302489e-43
11.272425	8.574919643143044e-43
11.298419	8.419271441401746e-43
11.324473	8.266454037281763e-43
11.350586999999999	8.1164171101456e-43
11.376762	7.969110761055377e-43
11.402997000000001	7.824486050015623e-43
11.429292	7.6824944520256e-43
11.455648	7.543087689604404e-43
11.482064999999999	7.406217746578225e-43
11.508543	7.271837734055037e-43
11.535082000000001	7.139901695247722e-43
11.561682000000001	7.010364085158889e-43
11.588343	6.8831809373438435e-43
11.615066	6.758308336162762e-43
11.64185	6.63570406654856e-43
11.668696	6.5153269138806245e-43
11.695605	6.397136320409999e-43
11.722575	6.281092852195715e-43
11.749607000000001	6.167157383625e-43
11.776702	6.055291726220025e-43
11.803859	5.94545814359921e-43
11.831078999999999	5.837619656236489e-43
11.858361	5.731739875145024e-43
11.885707	5.627782694065402e-43
11.913115	5.525712890149321e-43
11.940586999999999	5.425495955257156e-43
11.968122	5.327097789780899e-43
11.995721000000001	5.230484991256463e-43
12.023383	5.135624840399075e-43
12.051109	5.042485713453445e-43
12.078899	4.951036908596024e-43
12.106753	4.861247783577202e-43
12.134671	4.7730885977768486e-43
12.162654	4.686530350064643e-43
12.190700999999999	4.601544082041125e-43
12.218813	4.518101697514275e-43
12.246989	4.4361755385536405e-43
12.275231	4.3557379839402244e-43
12.303538	4.276762246447682e-43
12.33191	4.1992222195768365e-43
12.360347	4.123091689803025e-43
12.38885	4.0483455000921014e-43
12.417419	3.974958506641984e-43
12.446054	3.902905965990565e-43
12.474755	3.832163282171962e-43
12.503521000000001	3.762706380855409e-43
12.532355	3.69451145529505e-43
12.561254	3.627555207597722e-43
12.590221000000001	3.56181495736925e-43
12.619254	3.497268034391617e-43
12.648354	3.4338926103306253e-43
12.677521	3.3716673239236003e-43
12.706756	3.3105708107535995e-43
12.736058	3.2505826266821593e-43
12.765427	3.191682200250625e-43
12.794864	3.1338497447168037e-43
12.824369	3.077065567460417e-43
12.853942	3.0213105156696006e-43
12.883583999999999	2.966565635251344e-43
12.913293	2.9128124955484844e-43
12.943071	2.8600329614841757e-43
12.972918	2.808208977696369e-43
13.002834	2.7573232044484008e-43
13.032817999999999	2.7073583701275238e-43
13.062872	2.6582973802250415e-43
13.092995	2.610123624818162e-43
13.123188	2.562820357981635e-43
13.15345	2.5163717159025e-43
13.183782	2.4707617908705643e-43
13.214184	2.425975035539344e-43
13.244655999999999	2.3819966453242087e-43
13.275198000000001	2.3388125327354402e-43
13.305810999999999	2.29640891898132e-43
13.336494	2.25477213708248e-43
13.367248000000002	2.213889010128325e-43
13.398073000000002	2.173746369643209e-43
13.428969	2.134331338982976e-43
13.459937	2.0956307773636e-43
13.490975	2.057632024154641e-43
13.522085999999998	2.0203224343120098e-43
13.553268	1.9836896513541612e-43
13.584522	1.947721512468004e-43
13.615848000000002	1.912406133496356e-43
13.647245999999999	1.877731642505601e-43
13.678716	1.8436865288252405e-43
13.71026	1.8102591221796e-43
13.741876000000001	1.7774383647443293e-43
13.773565	1.745213120959504e-43
13.805326	1.713572600693041e-43
13.837162	1.6825061852364955e-43
13.86907	1.6520034250740248e-43
13.901051999999998	1.6220541987707559e-43
13.933107999999999	1.5926483841840009e-43
13.965238000000001	1.5637761800521002e-43
13.997442000000001	1.5354278615352961e-43
14.029720000000001	1.5075940924070012e-43
14.062073000000002	1.4802653737630893e-43
14.0945	1.453432589935921e-43
14.127002	1.427086693793601e-43
14.159579	1.4012189329138807e-43
14.192231	1.375820469938916e-43
14.224959	1.350882831992164e-43
14.257762	1.3263977530255358e-43
14.29064	1.302357096594225e-43
14.323594	1.2787527826804088e-43
14.356625	1.2555770019108839e-43
14.389731	1.232821996749225e-43
14.422914000000002	1.2104801327220252e-43
14.456173000000001	1.1885439657707558e-43
14.489510000000001	1.1670057592691562e-43
14.522922	1.145858110476676e-43
14.556412	1.125093872371561e-43
14.589979999999999	1.104705747048996e-43
14.623624	1.084686757383889e-43
14.657345999999999	1.065030105770401e-43
14.691146	1.045729040254756e-43
14.725024	1.0267769200896e-43
14.75898	1.0081672777225001e-43
14.793014999999999	9.898938144060837e-44
14.827126999999999	9.71950271197689e-44
14.861319	9.54330862924516e-44
14.895589000000001	9.370299537930248e-44
14.929939000000001	9.200418715248643e-44
14.964367000000001	9.03361272528961e-44
14.998875	8.869827724495361e-44
15.033463000000001	8.709010687270887e-44
15.068129999999998	8.55110822629284e-44
15.102877	8.396068953928407e-44
15.137704000000001	8.243841695922814e-44
15.172611999999999	8.094376645819237e-44
15.2076	7.947623637409001e-44
15.242669	7.803534979968639e-44
15.277819000000001	7.662062603457611e-44
15.31305	7.523160842811611e-44
15.348362	7.386783635350441e-44
15.383754999999999	7.252886177794891e-44
15.419229999999999	7.121423825120159e-44
15.454787	6.992353163913638e-44
15.490426000000001	6.865630407131041e-44
15.526147	6.74121299111716e-44
15.56195	6.619059028110242e-44
15.597836	6.499127297449961e-44
15.633804999999999	6.381377236865441e-44
15.669857	6.265771937625759e-44
15.705991000000001	6.152274030732837e-44
15.74221	6.040847200782251e-44
15.778510999999998	5.93145615685561e-44
15.814897	5.82406467343801e-44
15.851366	5.718637085235841e-44
15.887919	5.61513401483076e-44
15.924557	5.513518194979242e-44
15.961279000000001	5.413752532707841e-44
15.998085999999999	5.315800582404001e-44
16.034978	5.219627450220159e-44
16.071954	5.12519929043409e-44
16.109016	5.032482827744161e-44
16.146164000000002	4.941446238444959e-44
16.183397	4.85205778047769e-44
16.220716	4.764286242900249e-44
16.258121	4.678103533977759e-44
16.295613	4.593483698673959e-44
16.33319	4.510400711916161e-44
16.370855	4.4288293360665593e-44
16.408606	4.34874426371449e-44
16.446445	4.27011971975824e-44
16.484370000000002	4.192927447363209e-44
16.522382999999998	4.1171396742169607e-44
16.560484	4.0427295077160003e-44
16.598673	3.969670112889611e-44
16.636948999999998	3.8979359086248105e-44
16.675314	3.8275029164002504e-44
16.713767999999998	3.758349088774439e-44
16.75231	3.6904507761811603e-44
16.790941	3.62378661772516e-44
16.829660999999998	3.5583344314830405e-44
16.868470000000002	3.4940712622922505e-44
16.907369	3.4309745395210006e-44
16.946357	3.3690217046102495e-44
16.985436	3.3081913137235587e-44
17.024604	3.248461557331209e-44
17.063863	3.189814931628089e-44
17.103213	3.1322352232688403e-44
17.142653	3.0757071083763596e-44
17.182184	3.020214729252251e-44
17.221806	2.9657427585422393e-44
17.26152	2.9122746759054407e-44
17.301325	2.859793843556251e-44
17.341222	2.80828418980096e-44
17.381210999999997	2.757729527265691e-44
17.421292	2.7081155406060907e-44
17.461466	2.65942318676644e-44
17.501732	2.61163182375936e-44
17.542091	2.56471993356049e-44
17.582542999999998	2.5186654905241605e-44
17.623089	2.4734469402241604e-44
17.663728	2.4290463081840404e-44
17.70446	2.3854481245081597e-44
17.745287	2.342638402624001e-44
17.786208	2.30060276036644e-44
17.827223	2.259327346614809e-44
17.868333	2.2187973351438392e-44
17.909537	2.1789978612204098e-44
17.950837	2.1399131534736395e-44
17.992231	2.1015286122249998e-44
18.033722	2.0638299035329602e-44
18.075308	2.0268026704272393e-44
18.116989	1.9904331060944104e-44
18.158767	1.95470849625921e-44
18.200642000000002	1.919615792004e-44
18.242612	1.88514190622209e-44
18.284679999999998	1.8512753552096395e-44
18.326845000000002	1.81800484522281e-44
18.369106	1.7853195371222504e-44
18.411466	1.7532082372912902e-44
18.453923	1.7216615186409995e-44
18.496478	1.6906711266156102e-44
18.539131	1.6602288999016896e-44
18.581882	1.6303272805432894e-44
18.624732	1.6009582779840402e-44
18.667680999999998	1.5721137425281607e-44
18.710728	1.5437856245688898e-44
18.753876	1.5159657275193602e-44
18.797122	1.4886462061808097e-44
18.840467999999998	1.4618188292489997e-44
18.883915	1.4354773966188103e-44
18.927460999999997	1.40961456452961e-44
18.971107999999997	1.38422401743025e-44
19.014855999999998	1.3592983262102497e-44
19.058704000000002	1.3348294632432399e-44
19.102653	1.3108079169870397e-44
19.146704	1.28722389756921e-44
19.190857	1.2640689285872403e-44
19.235111	1.24133512476484e-44
19.279467	1.2190187028272403e-44
19.323926	1.1971178309894405e-44
19.368487	1.1756288554016396e-44
19.413151	1.15454745630169e-44
19.457918	1.1338659104259597e-44
19.502788	1.113571557081e-44
19.547762	1.0936520435952397e-44
19.592839	1.07409511188736e-44
19.63802	1.0548902451622501e-44
19.683304999999997	1.0360304295936405e-44
19.728695000000002	1.0175103895758399e-44
19.77419	9.993248340007696e-45
19.819789	9.814688556192101e-45
19.865494	9.639367773599522e-45
19.911304	9.467224809112224e-45
19.957219	9.298199307063243e-45
20.003241	9.132232307045797e-45
20.049369	8.969266591388943e-45
20.095603	8.80924776375365e-45
20.141942999999998	8.652122849836945e-45
20.188391	8.497840445447823e-45
20.234945	8.346349028306026e-45
20.281607	8.1975984375481e-45
20.328377	8.051538403033226e-45
20.375254	7.908120176022542e-45
20.42224	7.767295605236643e-45
20.469333	7.629017483997008e-45
20.516536	7.493239705377003e-45
20.563847	7.359916722061849e-45
20.611268	7.229004394696702e-45
20.658797	7.100458772208399e-45
20.706437	6.974237107562405e-45
20.754185999999997	6.8502968329104e-45
20.802045	6.728596885400626e-45
20.850015	6.609096360729798e-45
20.898095	6.491755493387762e-45
20.946285999999997	6.376535307010522e-45
20.994589	6.263397282490384e-45
21.043001999999998	6.152303827644129e-45
21.091528	6.043217788754496e-45
21.140165	5.936102912039879e-45
21.188914	5.830923516714255e-45
21.237776	5.727644487527209e-45
21.28675	5.626231267371262e-45
21.335838	5.526650296005135e-45
21.385039000000003	5.428868246169318e-45
21.434353	5.332852321957162e-45
21.48378	5.238570686076841e-45
21.533322000000002	5.145992003224899e-45
21.582978	5.055085149170884e-45
21.632749	4.9658200625306254e-45
21.682634	4.878166735327875e-45
21.732634	4.792096194601024e-45
21.78275	4.707579648134417e-45
21.832981	4.624589034757562e-45
21.883328	4.5430964670300165e-45
21.933791	4.463075039062501e-45
21.984371	4.3844980023537626e-45
22.035067	4.3073391658236825e-45
22.08588	4.2315727542915997e-45
22.13681	4.157173660917904e-45
22.187858	4.0841170469674084e-45
22.239023	4.012378595668921e-45
22.290306	3.941934501419929e-45
22.341707999999997	3.872761085806145e-45
22.393228	3.8048356672224997e-45
22.444867000000002	3.7381353058452646e-45
22.496625	3.672638038062435e-45
22.548503	3.60832188373748e-45
22.6005	3.545165453029265e-45
22.652617000000003	3.4831478132036014e-45
22.704854	3.422248245000225e-45
22.757210999999998	3.3624467073456635e-45
22.809689000000002	3.303723472856676e-45
22.862289	3.2460587819496365e-45
22.915009	3.189433192654489e-45
22.967852	3.1338274643988005e-45
23.020816	3.0792225586920495e-45
23.073902	3.025600189767937e-45
23.127110000000002	2.9729425829418087e-45
23.180442000000003	2.9212324611743296e-45
23.233895999999998	2.870452603326027e-45
23.287474	2.820586274892865e-45
23.341175	2.7716171098224992e-45
23.395	2.7235288937536004e-45
23.448949	2.6763058756506242e-45
23.503022	2.6299326528711607e-45
23.55722	2.5843937568464887e-45
23.611543	2.5396743688131243e-45
23.665992000000003	2.495759599626085e-45
23.720566	2.4526349950872246e-45
23.775265	2.4102860332728966e-45
23.830091	2.36869871837984e-45
23.885044	2.3278594684268167e-45
23.940123	2.2877554866571692e-45
23.995329	2.2483737856804002e-45
24.050662	2.2097019537560887e-45
24.106123	2.171727390425616e-45
24.161711999999998	2.1344377824005764e-45
24.217429	2.0978212803164406e-45
24.273275	2.0618653039262894e-45
24.329249	2.026556939151616e-45
24.385353	1.9918834047314413e-45
24.441585999999997	1.957832318265201e-45
24.497948	1.9243922994668157e-45
24.554441	1.8915524113043616e-45
24.611063	1.859302232619129e-45
24.667817000000003	1.8276311571448092e-45
24.724701	1.7965287452884842e-45
24.781716	1.7659845538571618e-45
24.838863	1.7359885577184162e-45
24.896142	1.706530641150976e-45
24.953552	1.6776010978438408e-45
25.011095	1.649190374550625e-45
25.068770999999998	1.6212890690747558e-45
25.12658	1.5938883275079608e-45
25.184522	1.5669795086484635e-45
25.242598	1.5405541005114488e-45
25.300807	1.5146033295890252e-45
25.359151	1.48911863881e-45
25.41763	1.464091376321809e-45
25.476243	1.4395132586827237e-45
25.534991	1.4153760583622565e-45
25.593875	1.3916717543836888e-45
25.652895	1.3683924534205212e-45
25.71205	1.3455303147238412e-45
25.771342999999998	1.323077842494769e-45
25.830772	1.3010275864575998e-45
25.890338	1.2793720717927206e-45
25.950041	1.258104158215696e-45
26.009882	1.237216888720836e-45
26.069861	1.2167031363379838e-45
26.129978	1.196556167760529e-45
26.190234	1.1767693557811842e-45
26.250628999999996	1.1573360418081638e-45
26.311163	1.1382498100097637e-45
26.371837	1.1195043464100252e-45
26.43265	1.1010933047910762e-45
26.493603999999998	1.0830107715386412e-45
26.554699	1.0652505978833288e-45
26.615934000000003	1.0478069948034088e-45
26.677311	1.0306740715167689e-45
26.738829	1.0138462242663042e-45
26.800489000000002	9.973179376762808e-46
26.862291	9.810836582850248e-46
26.924235999999997	9.651379848889e-46
26.986323	9.494757880092255e-46
27.048554	9.340917121713962e-46
27.110928	9.189808542018089e-46
27.173446000000002	9.041381458321001e-46
27.236108	8.895587203718415e-46
27.298915	8.752378475675607e-46
27.361866	8.61170636712681e-46
27.424963	8.47352627299684e-46
27.488204999999997	8.33779311806169e-46
27.551593	8.204462540254891e-46
27.615127	8.073492585876636e-46
27.678808	7.944841940672162e-46
27.742635999999997	7.818468244025762e-46
27.80661	7.694332585955999e-46
27.870732	7.57239443424256e-46
27.935003000000002	7.452614990724842e-46
27.999421	7.334955514331287e-46
28.063988000000002	7.21937894685604e-46
28.128704	7.105848262992087e-46
28.193569	6.9943264841052095e-46
28.258583	6.884778265773209e-46
28.323748	6.777168807360161e-46
28.389062	6.67146332838976e-46
28.454528000000003	6.5676275942868886e-46
28.520144000000002	6.465628417600001e-46
28.585912	6.365433630957209e-46
28.651831	6.26701005796009e-46
28.717903000000003	6.1703270426044886e-46
28.784126	6.075352914293609e-46
28.850503000000003	5.982056995635359e-46
28.917032	5.890409576675561e-46
28.983715000000004	5.800380926403999e-46
29.050552000000003	5.7119417830956105e-46
29.117542999999998	5.62506429659524e-46
29.184688	5.539720102920999e-46
29.251988	5.4558817559324115e-46
29.319443	5.373521776161639e-46
29.387054	5.292614502964888e-46
29.454821000000003	5.213132839857959e-46
29.522744	5.13505149065104e-46
29.590823999999998	5.058345552667561e-46
29.659059999999997	4.98299006502544e-46
29.727453999999998	4.90896090630625e-46
29.796006	4.83623389290721e-46
29.864715999999998	4.764785663353211e-46
29.933584000000003	4.694593223401e-46
30.002610999999998	4.6256343711494405e-46
30.071796999999997	4.557886822272639e-46
30.141143	4.491327797190091e-46
30.210649	4.4259353094064906e-46
30.280315	4.3616873093040895e-46
30.350141999999998	4.298563767484839e-46
30.420129	4.2365441393968905e-46
30.490278000000004	4.1756082083302495e-46
30.560589	4.115736892238411e-46
30.631062	4.056911001506249e-46
30.701696999999996	3.99911084941729e-46
30.772496000000004	3.9423190561507595e-46
30.843457	3.886516530625e-46
30.914583	3.83168566894864e-46
30.985871999999997	3.777809142085689e-46
31.057326	3.724869506062409e-46
31.128944	3.672849595024e-46
31.200728	3.621734039693161e-46
31.272677	3.571506186680411e-46
31.344791999999998	3.522148898773211e-46
31.417073	3.4736456952296096e-46
31.489521000000003	3.4259822152928093e-46
31.562136	3.3791490918144396e-46
31.634919	3.33313813389456e-46
31.707869	3.287933586756001e-46
31.780988	3.2435145525760003e-46
31.854275	3.19986053527716e-46
31.927731	3.1569556969497593e-46
32.001357	3.1147890602522503e-46
32.075152	3.07334803955089e-46
32.149118	3.0326195427872388e-46
32.223254	2.9925899920281596e-46
32.297561	2.9532463744014404e-46
32.372039	2.914576227369e-46
32.446689	2.876567624398089e-46
32.521512	2.83920781302601e-46
32.596506	2.8024859235312907e-46
32.671673999999996	2.7663895850608904e-46
32.747015000000005	2.7309079516068092e-46
32.82253	2.696029029289211e-46
32.898219	2.661742652631041e-46
32.974083	2.6280388084552887e-46
33.050121000000004	2.5949076338608907e-46
33.126335	2.5623394142148093e-46
33.202725	2.5303242630204895e-46
33.27929	2.4988527621759998e-46
33.356033000000004	2.467915007408009e-46
33.432952	2.4375015625e-46
33.510049	2.4076034473411606e-46
33.587323	2.3782115094540105e-46
33.664776	2.34931673805361e-46
33.742407	2.3209102619715596e-46
33.820217	2.2929836504520104e-46
33.898207	2.2655286009892905e-46
33.976376	2.238536339041211e-46
34.054726	2.2119991212968106e-46
34.133257	2.1859087286276104e-46
34.211968	2.16025706982969e-46
34.290861	2.1350367641522506e-46
34.369935999999996	2.1102396696889604e-46
34.449194	2.0858589290500905e-46
34.528634000000004	2.06188692369984e-46
34.608257	2.0383161539552095e-46
34.688064000000004	2.01513980495844e-46
34.768055	1.9923508818435597e-46
34.84823	1.9699424969529603e-46
34.92859	1.9479078682200898e-46
35.009136	1.9262400399902506e-46
35.089867	1.90493299328761e-46
35.170784999999995	1.88398024865856e-46
35.251889	1.8633751530250002e-46
35.33318	1.8431119716787604e-46
35.414659	1.8231845142622502e-46
35.496325	1.803586416742891e-46
35.578179999999996	1.7843122157422497e-46
35.660224	1.7653562626224098e-46
35.742456	1.74671272938276e-46
35.824878999999996	1.7283756143290006e-46
35.907491	1.7103403168800398e-46
35.990294	1.69260073980001e-46
36.073288	1.6751524350182396e-46
36.156473	1.6579897292702493e-46
36.23985	1.6411070372489999e-46
36.32342	1.6244993699222505e-46
36.407182	1.60816181294224e-46
36.491137	1.59208977782416e-46
36.575286	1.5762787434003601e-46
36.659628999999995	1.5607237550944895e-46
36.744166	1.54542018209049e-46
36.828897999999995	1.5303637099936896e-46
36.913826	1.5155498412828905e-46
36.99895	1.5009753704490003e-46
37.084270000000004	1.48663664658441e-46
37.169786	1.4725286137884099e-46
37.2555	1.45864701882916e-46
37.341412	1.44498695019121e-46
37.427521	1.4315450074896105e-46
37.513829	1.4183173613196904e-46
37.600336	1.4053002377529598e-46
37.687043	1.3924896814440001e-46
37.77395	1.3798824998559999e-46
37.861057	1.3674746092464902e-46
37.948365	1.35526291763776e-46
38.035874	1.34324368045921e-46
38.123585	1.33141343838721e-46
