f	psd[1/Hz]
1.0	2.0843817576675808e-40
1.4999499949994999	1.7199843924310144e-40
1.9998999899989998	1.411176408068205e-40
2.4998499849985	1.1508500226252273e-40
2.9997999799979995	9.326123291821188e-41
3.4997499749974996	7.507349633896197e-41
3.9996999699969997	6.001056333970023e-41
4.499649964996499	4.761815121710355e-41
4.999599959995999	3.749444922059743e-41
5.4995499549955	2.9285830262470555e-41
5.999499949994999	2.2682748867092968e-41
6.499449944994499	1.7415825359247298e-41
6.9993999399939995	1.325211629156702e-41
7.499349934993499	9.991571111084526e-42
7.999299929992999	7.463675064888267e-42
8.4992499249925	5.524278344888848e-42
8.999199919991998	4.052611471694364e-42
9.499149914991499	2.948486917594785e-42
9.999099909991	2.129686968655507e-42
10.499049904990498	1.529537825919938e-42
10.998999899989998	1.0946699457212548e-42
11.498949894989499	7.82964619103254e-43
11.998899889988998	5.616867903503038e-43
12.498849884988498	4.058041146264142e-43
12.998799879987999	2.9649225472342283e-43
13.498749874987498	2.1982605187636464e-43
13.998699869986998	1.6552058368645823e-43
14.498649864986499	1.2589573749297854e-43
14.998599859985998	9.603203646436842e-44
15.498549854985498	7.377390603281888e-44
15.998499849984999	5.758630484235533e-44
16.4984498449845	4.582306483482213e-44
16.998399839983996	3.677974506014245e-44
17.498349834983497	2.9274649700827584e-44
17.998299829982997	2.3052575817931594e-44
18.498249824982498	1.8201762340648482e-44
18.998199819982	1.4705440495959533e-44
19.4981498149815	1.2285095118179996e-44
19.998099809980996	1.0506663264682532e-44
20.498049804980496	9.038771497187164e-45
20.997999799979997	7.642789696897562e-45
21.497949794979498	6.296800984114622e-45
21.997899789978998	5.0973210272778055e-45
22.4978497849785	4.109829228705154e-45
22.997799779977996	3.368611500609743e-45
23.497749774977496	2.849084528174291e-45
23.997699769976997	2.4716912755673535e-45
24.497649764976497	2.1716435070472776e-45
24.997599759975998	1.8993698234910653e-45
25.4975497549755	1.6366135258622833e-45
25.997499749974995	1.3925071664568917e-45
26.497449744974496	1.1750489574890933e-45
26.997399739973996	9.895199232211083e-46
27.497349734973497	8.388431305395031e-46
27.997299729972998	7.230160411336723e-46
28.497249724972498	6.347320968939296e-46
28.997199719971995	5.658128294680071e-46
29.497149714971496	5.097163601720069e-46
29.997099709970996	4.611015369448311e-46
30.497049704970497	4.157830827274074e-46
30.996999699969997	3.7279594928075116e-46
31.496949694969498	3.328261855156199e-46
31.996899689968995	2.9642312788419593e-46
32.496849684968495	2.6398332423344304e-46
32.99679967996799	2.3576895205680263e-46
33.496749674967496	2.1193375108825017e-46
33.99669966996699	1.9242863966598942e-46
34.4966496649665	1.7654706493964868e-46
34.996599659965995	1.6348950805539498e-46
35.4965496549655	1.5257458757459408e-46
35.996499649964996	1.4321305738700756e-46
36.49644964496449	1.348876976391947e-46
36.996399639964	1.2715420540458634e-46
37.496349634963494	1.1983807748340363e-46
37.996299629963	1.1295073165383645e-46
38.496249624962495	1.0650502887056472e-46
38.99619961996199	1.0051074715017078e-46
39.496149614961496	9.497496281354612e-47
39.99609960996099	8.990247973555457e-47
40.4960496049605	8.529630660195493e-47
40.995999599959994	8.115769325833649e-47
41.4959495949595	7.746371956886655e-47
41.995899589958995	7.416036691745524e-47
42.49584958495849	7.119575008474103e-47
42.995799579957996	6.852222769913544e-47
43.49574957495749	6.609584256514421e-47
43.995699569957	6.387583270602974e-47
44.495649564956494	6.1824213120815e-47
44.99559955995599	5.990542825562862e-47
45.495549554955495	5.809007749650871e-47
45.99549954995499	5.636906187381439e-47
46.495449544954496	5.473915119935162e-47
46.99539953995399	5.31972454165292e-47
47.4953495349535	5.174037255280875e-47
47.995299529952995	5.036568747250855e-47
48.49524952495249	4.907047063364675e-47
48.995199519951996	4.785212684882375e-47
49.49514951495149	4.670818405014404e-47
49.995099509951	4.563629205817709e-47
50.495049504950494	4.463422135495778e-47
50.99499949994999	4.369986186102588e-47
51.494949494949495	4.2831221716504906e-47
51.99489948994899	4.202642606622034e-47
52.494849484948496	4.128353536734787e-47
52.99479947994799	4.05986366528002e-47
53.49474947494749	3.9966653411062706e-47
53.994699469946994	3.938269395277258e-47
54.49464946494649	3.884205316087168e-47
54.994599459945995	3.8340192742028765e-47
55.49454945494549	3.787272328868673e-47
55.994499449944996	3.743538815173421e-47
56.49444944494449	3.702404912380188e-47
56.99439943994399	3.6634673933183533e-47
57.494349434943494	3.626332554838154e-47
57.99429942994299	3.590615329327709e-47
58.494249424942495	3.5559385772925014e-47
58.99419941994199	3.521932560997323e-47
59.49414941494149	3.488234635977111e-47
59.99409940994099	3.4545757143693043e-47
60.49404940494049	3.4209628005346373e-47
60.993999399939995	3.387455594558558e-47
61.49394939493949	3.3541126553917925e-47
61.993899389938996	3.32099139831474e-47
62.49384938493849	3.288148097363382e-47
62.99379937993799	3.255637892716756e-47
63.493749374937494	3.223514803045995e-47
63.99369936993699	3.1918317428248797e-47
64.49364936493649	3.1606405446019893e-47
64.99359935993598	3.1299919862343613e-47
65.4935493549355	3.099935823082725e-47
65.99349934993499	3.0705208251682904e-47
66.49344934493449	3.041794819291057e-47
66.99339933993399	3.0138047361097206e-47
67.4933493349335	2.986596662183083e-47
67.993299329933	2.9602158969730527e-47
68.49324932493249	2.934707014809166e-47
68.99319931993199	2.910113931814676e-47
69.49314931493149	2.886479977794195e-47
69.993099309931	2.863847973082867e-47
70.4930493049305	2.842260310357122e-47
70.99299929992999	2.8217590414069507e-47
71.49294929492949	2.802381261224595e-47
71.99289928992899	2.7841044375861846e-47
72.4928492849285	2.766865979094174e-47
72.992799279928	2.7506036855455174e-47
73.49274927492749	2.7352564659250172e-47
73.99269926992699	2.7207642519546586e-47
74.49264926492648	2.7070679167622437e-47
74.992599259926	2.694109198669322e-47
75.49254925492549	2.6818306300983847e-47
75.99249924992499	2.670175471599377e-47
76.49244924492449	2.6590876509954695e-47
76.99239923992398	2.648511707648144e-47
77.4923492349235	2.638392741841548e-47
77.99229922992299	2.6286763692861477e-47
78.49224922492249	2.619308680741665e-47
78.99219921992199	2.6102362067593095e-47
79.4921492149215	2.6014058875432863e-47
79.992099209921	2.5927650479316016e-47
80.49204920492049	2.5842613774961585e-47
80.99199919991999	2.5758429157621283e-47
81.49194919491948	2.5674580425466304e-47
81.991899189919	2.5590554734166736e-47
82.4918491849185	2.550584260266415e-47
82.99179917991799	2.5419937970136795e-47
83.49174917491749	2.5332338304157943e-47
83.99169916991698	2.524254948975135e-47
84.4916491649165	2.5150334105967694e-47
84.99159915991599	2.5055831554332025e-47
85.49154915491549	2.4959210975475733e-47
85.99149914991499	2.486064064066439e-47
86.49144914491448	2.47602878828048e-47
86.991399139914	2.465831903228125e-47
87.49134913491349	2.4554899357620564e-47
87.99129912991299	2.445019301098628e-47
88.49124912491249	2.434436297850179e-47
88.99119911991198	2.423757103540252e-47
89.4911491149115	2.412997770601709e-47
89.99109910991099	2.402174222857747e-47
90.49104910491049	2.3913022524858207e-47
90.99099909990998	2.3803975174644553e-47
91.49094909490948	2.3694755395029673e-47
91.99089908990899	2.3585517024540867e-47
92.49084908490849	2.3476412512094775e-47
92.99079907990799	2.336759291078156e-47
93.49074907490748	2.3259207876478117e-47
93.990699069907	2.315140567129033e-47
94.49064906490649	2.3044333171824295e-47
94.99059905990599	2.293813588228657e-47
95.49054905490549	2.283295795241333e-47
95.99049904990498	2.2728942200228735e-47
96.4904490449045	2.262623013963212e-47
96.99039903990399	2.2524962012814265e-47
97.49034903490349	2.2425276827502665e-47
97.99029902990299	2.2327312399035776e-47
98.49024902490248	2.223120539726636e-47
98.990199019902	2.2137091398293695e-47
99.49014901490149	2.204510494102494e-47
99.99009900990099	2.1955379588565357e-47
100.49004900490048	2.1868047021213391e-47
100.98999899989998	2.1783166841414008e-47
101.48994899489949	2.1700680045022073e-47
101.98989898989899	2.1620517141542076e-47
102.48984898489849	2.1542609392968588e-47
102.98979897989798	2.146688878568949e-47
103.48974897489748	2.1393288003135431e-47
103.98969896989699	2.13217403991751e-47
104.48964896489649	2.12521799722567e-47
104.98959895989599	2.1184541340295318e-47
105.48954895489548	2.1118759716306404e-47
105.98949894989498	2.1054770884785231e-47
106.48944894489449	2.0992511178832448e-47
106.98939893989399	2.0931917458025508e-47
107.48934893489348	2.0872927087036314e-47
107.98929892989298	2.0815477914994757e-47
108.4892489248925	2.0759508255598357e-47
108.98919891989199	2.070495686796786e-47
109.48914891489149	2.065176293824892e-47
109.98909890989098	2.059986606195974e-47
110.48904890489048	2.0549206227084875e-47
110.98899889988999	2.0499723797914855e-47
111.48894889488949	2.0451359499632056e-47
111.98889888988899	2.0404054403642427e-47
112.48884888488848	2.0357749913653296e-47
112.98879887988798	2.0312387752497282e-47
113.48874887488749	2.0267909949702065e-47
113.98869886988699	2.0224258829806404e-47
114.48864886488649	2.0181377001421924e-47
114.98859885988598	2.0139207347041172e-47
115.48854885488548	2.0097693013591495e-47
115.98849884988499	2.0056777403735138e-47
116.48844884488449	2.0016404167915212e-47
116.98839883988398	1.9976517197147723e-47
117.48834883488348	1.9937060616559707e-47
117.98829882988298	1.9897978779673304e-47
118.48824882488249	1.9859216263435884e-47
118.98819881988199	1.9820717863996215e-47
119.48814881488148	1.9782428593226648e-47
119.98809880988098	1.9744293675991293e-47
120.48804880488048	1.9706258548160286e-47
120.98799879987999	1.9668268855370068e-47
121.48794879487949	1.9630275033244107e-47
121.98789878987898	1.959226394472677e-47
122.48784878487848	1.9554239723703756e-47
122.98779877987799	1.9516206593658694e-47
123.48774877487749	1.9478168762360873e-47
123.98769876987699	1.9440130421819493e-47
124.48764876487648	1.940209574824206e-47
124.98759875987598	1.9364068901997276e-47
125.48754875487549	1.9326054027582e-47
125.98749874987499	1.9288055253592504e-47
126.48744874487448	1.9250076692700037e-47
126.98739873987398	1.921212244163061e-47
127.48734873487348	1.9174196581149073e-47
127.98729872987299	1.9136303176047423e-47
128.48724872487247	1.9098446275137368e-47
128.98719871987197	1.9060629911247177e-47
129.4871487148715	1.9022858101222777e-47
129.987098709871	1.8985134845933138e-47
130.4870487048705	1.894746413027984e-47
130.98699869986999	1.8909849923211018e-47
131.48694869486948	1.8872296177739412e-47
131.98689868986898	1.8834806830964848e-47
132.48684868486848	1.8797385804100865e-47
132.98679867986797	1.876003700250564e-47
133.48674867486747	1.8722764315717141e-47
133.986698669867	1.8685571617492638e-47
134.4866486648665	1.864846276585232e-47
134.986598659866	1.8611441603127302e-47
135.4865486548655	1.8574511956011838e-47
135.98649864986498	1.8537677635619805e-47
136.48644864486448	1.850094243754541e-47
136.98639863986398	1.8464310141928274e-47
137.48634863486348	1.8427784513522596e-47
137.98629862986297	1.839136930177072e-47
138.48624862486247	1.8355068240880928e-47
138.986198619862	1.8318885049909493e-47
139.4861486148615	1.8282823432846906e-47
139.986098609861	1.8246887078708517e-47
140.48604860486049	1.8211079661629322e-47
140.98599859985998	1.8175404840963062e-47
141.48594859485948	1.8139866261385544e-47
141.98589858985898	1.8104467553002264e-47
142.48584858485847	1.8069212331460262e-47
142.98579857985797	1.8034104198064252e-47
143.4857485748575	1.7999146739896984e-47
143.985698569857	1.7964343529943907e-47
144.4856485648565	1.7929698127222089e-47
144.985598559856	1.7895214076913306e-47
145.48554855485548	1.7860894910501594e-47
145.98549854985498	1.782674414591479e-47
146.48544854485448	1.7792765287670612e-47
146.98539853985397	1.7758961827026735e-47
147.48534853485347	1.7725337242135367e-47
147.98529852985297	1.7691894998201904e-47
148.4852485248525	1.7658638547647916e-47
148.985198519852	1.762557173850333e-47
149.4851485148515	1.7592701082768722e-47
149.98509850985099	1.7560034147957072e-47
150.48504850485048	1.7527578477186746e-47
150.98499849984998	1.749534158658724e-47
151.48494849484948	1.7463330965722454e-47
151.98489848984897	1.7431554078032536e-47
152.48484848484847	1.7400018361293934e-47
152.98479847984797	1.7368731228097899e-47
153.4847484748475	1.7337700066347393e-47
153.984698469847	1.7306932239772266e-47
154.4846484648465	1.7276435088462951e-47
154.98459845984598	1.7246215929422367e-47
155.48454845484548	1.7216282057136396e-47
155.98449844984498	1.718664074416248e-47
156.48444844484447	1.7157299241736894e-47
156.98439843984397	1.7128264780400135e-47
157.48434843484347	1.7099544570640794e-47
157.984298429843	1.707114580355785e-47
158.4842484248425	1.7043075651541234e-47
158.984198419842	1.701534126897085e-47
159.48414841484148	1.69879497929339e-47
159.98409840984098	1.6960908343960675e-47
160.48404840484048	1.6934224026778625e-47
160.98399839983998	1.6907903931084896e-47
161.48394839483947	1.6881955132337133e-47
161.98389838983897	1.685638469256275e-47
162.48384838483847	1.6831199661186546e-47
162.983798379838	1.6806407075876699e-47
163.4837483748375	1.6782013963409092e-47
163.983698369837	1.675802734055011e-47
164.48364836483648	1.6734454214957673e-47
164.98359835983598	1.6711301586100787e-47
165.48354835483548	1.6688576446197386e-47
165.98349834983497	1.6666285781170552e-47
166.48344834483447	1.6644436571623148e-47
166.98339833983397	1.662303579383076e-47
167.48334833483347	1.6602090420753158e-47
167.983298329833	1.6581607423063876e-47
168.4832483248325	1.6561593770198477e-47
168.98319831983198	1.6542056431420936e-47
169.48314831483148	1.6523002376908507e-47
169.98309830983098	1.6504438578855041e-47
170.48304830483048	1.6486372012592438e-47
170.98299829982997	1.646880965773083e-47
171.48294829482947	1.6451758499316742e-47
171.98289828982897	1.6435225529009946e-47
172.4828482848285	1.641921646767494e-47
172.982798279828	1.6403724549442584e-47
173.4827482748275	1.6388735978427662e-47
173.98269826982698	1.6374236925428387e-47
174.48264826482648	1.6360213606258623e-47
174.98259825982598	1.6346652279836335e-47
175.48254825482547	1.6333539246324815e-47
175.98249824982497	1.6320860845326642e-47
176.48244824482447	1.6308603454130546e-47
176.98239823982397	1.629675348601102e-47
177.4823482348235	1.6285297388580587e-47
177.982298229823	1.6274221642195166e-47
178.48224822482248	1.6263512758411902e-47
178.98219821982198	1.6253157278500048e-47
179.48214821482148	1.6243141772004447e-47
179.98209820982098	1.623345283536196e-47
180.48204820482047	1.6224077090570615e-47
180.98199819981997	1.62150011839115e-47
181.48194819481947	1.6206211784723598e-47
181.98189818981896	1.6197695584231264e-47
182.4818481848185	1.6189439294424543e-47
182.98179817981799	1.6181429646992414e-47
183.48174817481748	1.6173653392308538e-47
183.98169816981698	1.6166097298470125e-47
184.48164816481648	1.6158748150389357e-47
184.98159815981597	1.615159274893776e-47
185.48154815481547	1.6144617910143187e-47
185.98149814981497	1.6137810464439863e-47
186.48144814481446	1.6131157255970953e-47
186.981398139814	1.6124645141944116e-47
187.4813481348135	1.6118260992039709e-47
187.98129812981298	1.6111991687871933e-47
188.48124812481248	1.6105824122502628e-47
188.98119811981198	1.6099745200008003e-47
189.48114811481148	1.609374183509798e-47
189.98109810981097	1.6087800952788599e-47
190.48104810481047	1.6081909488126875e-47
190.98099809980997	1.607605438596876e-47
191.48094809480946	1.607022260080975e-47
191.980898089809	1.6064401096668232e-47
192.48084808480849	1.6058576847021824e-47
192.98079807980798	1.6052736834796276e-47
193.48074807480748	1.6046868052407306e-47
193.98069806980698	1.6040957501855256e-47
194.48064806480647	1.603499219487238e-47
194.98059805980597	1.6028959153123134e-47
195.48054805480547	1.6022845408457066e-47
195.98049804980496	1.6016638003214691e-47
196.48044804480446	1.6010323990585946e-47
196.980398039804	1.6003890435021626e-47
197.48034803480348	1.5997324412697555e-47
197.98029802980298	1.5990613012031477e-47
198.48024802480248	1.5983743334252832e-47
198.98019801980197	1.5976702494025304e-47
199.48014801480147	1.5969477620122161e-47
199.98009800980097	1.5962055856154333e-47
200.48004800480047	1.5954424361351378e-47
200.97999799979996	1.5946570311395216e-47
201.4799479947995	1.593848089930656e-47
201.97989798979899	1.5930143336384317e-47
202.47984798479848	1.5921544853197627e-47
202.97979797979798	1.591267270063074e-47
203.47974797479748	1.5903514150980768e-47
203.97969796979697	1.58940564991081e-47
204.47964796479647	1.588428706363972e-47
204.97959795979597	1.5874193188225249e-47
205.47954795479546	1.5863762242845814e-47
205.97949794979496	1.585298162517573e-47
206.4794479447945	1.584184122042515e-47
206.97939793979398	1.5830346003779356e-47
207.47934793479348	1.581850665815831e-47
207.97929792979298	1.5806333873580524e-47
208.47924792479247	1.5793838335261045e-47
208.97919791979197	1.5781030722527474e-47
209.47914791479147	1.5767921707769555e-47
209.97909790979097	1.5754521955422377e-47
210.47904790479046	1.5740842120983038e-47
210.97899789978996	1.5726892850060901e-47
211.47894789478948	1.5712684777461447e-47
211.97889788978898	1.5698228526303572e-47
212.47884788478848	1.5683534707170578e-47
212.97879787978798	1.566861391729459e-47
213.47874787478747	1.565347673977462e-47
213.97869786978697	1.5638133742828093e-47
214.47864786478647	1.5622595479076048e-47
214.97859785978596	1.560687248486177e-47
215.47854785478546	1.5590975279603026e-47
215.978497849785	1.5574914365177897e-47
216.47844784478448	1.5558700225344102e-47
216.97839783978398	1.554234332519186e-47
217.47834783478348	1.5525854110630403e-47
217.97829782978297	1.5509243007907935e-47
218.47824782478247	1.5492520423165205e-47
218.97819781978197	1.5475696742022614e-47
219.47814781478147	1.5458782329200877e-47
219.97809780978096	1.5441787528175236e-47
220.47804780478046	1.5424722660863273e-47
220.97799779977998	1.5407598027346144e-47
221.47794779477948	1.5390423905623563e-47
221.97789778977898	1.537321055140214e-47
222.47784778477848	1.535596819791742e-47
222.97779777977797	1.5338707055789378e-47
223.47774777477747	1.5321437312911552e-47
223.97769776977697	1.5304169134373673e-47
224.47764776477646	1.5286912662417848e-47
224.97759775977596	1.5269678016428292e-47
225.47754775477546	1.5252475292954693e-47
225.97749774977498	1.5235314565768995e-47
226.47744774477448	1.5218205885955869e-47
226.97739773977398	1.520115928203663e-47
227.47734773477347	1.518418476012676e-47
227.97729772977297	1.516729230412701e-47
228.47724772477247	1.5150491875948006e-47
228.97719771977197	1.513379341576838e-47
229.47714771477146	1.5117206842326588e-47
229.97709770977096	1.5100742053246083e-47
230.47704770477048	1.5084408925394265e-47
230.97699769976998	1.5068217315274761e-47
231.47694769476948	1.505217705945345e-47
231.97689768976898	1.503629797501792e-47
232.47684768476847	1.50205898600705e-47
232.97679767976797	1.5005062494254936e-47
233.47674767476747	1.4989725639316429e-47
233.97669766976696	1.4974589039695437e-47
234.47664766476646	1.4959662423154936e-47
234.97659765976596	1.4944955501441156e-47
235.47654765476548	1.4930477970978005e-47
235.97649764976498	1.4916239513595013e-47
236.47644764476448	1.490224979728875e-47
236.97639763976397	1.488851847701789e-47
237.47634763476347	1.4875055195531763e-47
237.97629762976297	1.4861869584232524e-47
238.47624762476246	1.484897126407084e-47
238.97619761976196	1.4836369846475062e-47
239.47614761476146	1.4824074934314126e-47
239.97609760976096	1.4812096122893798e-47
240.47604760476048	1.4800443000986667e-47
240.97599759975998	1.47891251518955e-47
241.47594759475948	1.477815215455036e-47
241.97589758975897	1.4767533584639043e-47
242.47584758475847	1.4757279015771295e-47
242.97579757975797	1.4747397400205026e-47
243.47574757475746	1.4737889496188027e-47
